Timestamp_ms,Centered_EMG,RMS_Envelope
3311061,2.7972,2.7972
3311062,2.7972,2.7972
3311063,1.7972,2.5085
3311064,2.7972,2.5837
3311065,4.7972,3.1532
3311066,3.7972,3.2694
3311067,3.7972,3.3499
3311068,5.7972,3.7443
3311069,4.7972,3.8754
3311070,4.7972,3.9772
3311071,2.7972,3.8848
3311072,2.7972,3.8061
3311073,3.7972,3.8054
3311074,2.7972,3.7424
3311075,2.7972,3.6869
3311076,2.7972,3.6377
3311077,2.7972,3.5937
3311078,2.7972,3.5541
3311079,1.7972,3.4838
3311080,2.7972,3.4527
3311081,2.7972,3.4243
3311082,2.7972,3.3984
3311083,3.7972,3.4167
3311084,3.7972,3.4334
3311085,2.7972,3.4102
3311086,1.7972,3.3625
3311087,2.7972,3.3433
3311088,1.7972,3.3005
3311089,2.7972,3.2845
3311090,2.7972,3.2694
3311091,3.7972,3.2877
3311092,2.7972,3.2735
3311093,3.7972,3.2906
3311094,3.7972,3.3066
3311095,1.7972,3.2732
3311096,-8.2028,3.5050
3311097,1.7972,3.4699
3311098,1.7972,3.4363
3311099,1.7972,3.4042
3311100,1.7972,3.3734
3311101,2.7972,3.3605
3311102,1.7972,3.3318
3311103,1.7972,3.3042
3311104,0.7972,3.2687
3311105,-8.2028,3.4557
3311106,-7.2028,3.5791
3311107,-9.2028,3.7868
3311108,-9.2028,3.9756
3311109,-6.2028,4.0333
3311110,1.7972,4.0009
3311111,1.7972,3.9695
3311112,-8.2028,4.0924
3311113,-6.2028,4.1422
3311114,3.7972,4.1360
3311115,3.7972,4.1301
3311116,3.7972,4.1244
3311117,1.7972,4.0950
3311118,1.7972,4.0664
3311119,4.7972,4.0799
3311120,6.7972,4.1398
3311121,4.7972,4.1514
3311122,2.7972,4.1331
3311123,2.7972,4.1153
3311124,3.7972,4.1105
3311125,3.7972,4.1059
3311126,2.7972,4.0892
3311127,3.7972,4.0850
3311128,2.7972,4.0690
3311129,4.7972,4.0805
3311130,6.7972,4.1319
3311131,6.7972,4.1812
3311132,5.7972,4.2079
3311133,5.7972,4.2337
3311134,4.7972,4.2418
3311135,6.7972,4.2859
3311136,6.7972,4.3284
3311137,6.7972,4.3694
3311138,6.7972,4.4090
3311139,5.7972,4.4293
3311140,3.7972,4.4220
3311141,3.7972,4.4148
3311142,5.7972,4.4343
3311143,3.7972,4.4271
3311144,4.7972,4.4317
3311145,4.7972,4.4362
3311146,4.7972,4.4406
3311147,5.7972,4.4585
3311148,5.7972,4.4760
3311149,6.7972,4.5087
3311150,5.7972,4.5250
3311151,5.7972,4.5409
3311152,2.7972,4.5256
3311153,2.7972,4.5105
3311154,2.7972,4.4957
3311155,4.7972,4.4990
3311156,8.7972,4.5647
3311157,18.7972,4.9259
3311158,17.7972,5.2200
3311159,16.7972,5.4611
3311160,16.7972,5.6874
3311161,8.7972,5.7265
3311162,16.7972,5.9361
3311163,7.7972,5.9570
3311164,7.7972,5.9774
3311165,8.7972,6.0105
3311166,15.7972,6.1757
3311167,7.7972,6.1928
3311168,6.7972,6.1987
3311169,7.7972,6.2152
3311170,8.7972,6.2435
3311171,17.7972,6.4408
3311172,17.7972,6.6288
3311173,8.7972,6.6511
3311174,7.7972,6.6620
3311175,4.7972,6.6480
3311176,6.7972,6.6493
3311177,8.7972,6.6706
3311178,19.7972,6.8878
3311179,17.7972,7.0501
3311180,17.7972,7.2062
3311181,16.7972,7.3371
3311182,15.7972,7.4456
3311183,16.7972,7.5683
3311184,17.7972,7.7053
3311185,7.7972,7.7061
3311186,5.7972,7.6928
3311187,4.7972,7.6743
3311188,16.7972,7.7871
3311189,19.7972,7.9503
3311190,18.7972,8.0894
3311191,17.7972,8.2071
3311192,15.7972,8.2908
3311193,7.7972,8.2872
3311194,8.7972,8.2911
3311195,9.7972,8.3033
3311196,18.7972,8.4282
3311197,19.7972,8.5661
3311198,17.7972,8.6684
3311199,6.7972,8.6564
3311200,6.7972,8.6445
3311201,6.7972,8.6328
3311202,6.7972,8.6212
3311203,4.7972,8.6004
3311204,6.7972,8.5892
3311205,8.7972,8.5906
3311206,16.7972,8.6733
3311207,17.7972,8.7675
3311208,16.7972,8.8462
3311209,7.7972,8.8396
3311210,4.7972,8.8188
3311211,3.7972,8.7950
3311212,-0.2028,8.7660
3311213,1.7972,8.7385
3311214,1.7972,8.7113
3311215,0.7972,8.6834
3311216,-7.2028,8.6747
3311217,-8.2028,8.6718
3311218,0.7972,8.6445
3311219,1.7972,8.6185
3311220,1.7972,8.5927
3311221,2.7972,8.5688
3311222,3.7972,8.5475
3311223,1.7972,8.5224
3311224,1.7972,8.4976
3311225,1.7972,8.4729
3311226,1.7972,8.4485
3311227,2.7972,8.4260
3311228,1.7972,8.4020
3311229,2.7972,8.3799
3311230,2.7972,8.3579
3311231,1.7972,8.3346
3311232,1.7972,8.3115
3311233,2.7972,8.2901
3311234,1.7972,8.2674
3311235,2.7972,8.2465
3311236,1.7972,8.2241
3311237,1.7972,8.2020
3311238,1.7972,8.1800
3311239,2.7972,8.1598
3311240,2.7972,8.1398
3311241,2.7972,8.1199
3311242,1.7972,8.0987
3311243,0.7972,8.0767
3311244,2.7972,8.0574
3311245,0.7972,8.0358
3311246,0.7972,8.0144
3311247,0.7972,7.9931
3311248,2.7972,7.9745
3311249,1.7972,7.9544
3311250,0.7972,7.9337
3311251,-6.2028,7.9256
3311252,-7.2028,7.9220
3311253,-8.2028,7.9235
3311254,-7.2028,7.9199
3311255,-7.2028,7.9164
3311256,-8.2028,7.9179
3311257,-7.2028,7.9144
3311258,-6.2028,7.9067
3311259,-8.2028,7.9082
3311260,-11.2028,7.9281
3311261,-11.2028,7.9477
3311262,-11.2028,7.9671
3311263,-14.2028,8.0098
3311264,-12.2028,8.0357
3311265,-12.2028,8.0612
3311266,-11.2028,8.0794
3311267,-11.2028,8.0974
3311268,-13.2028,8.1296
3311269,-14.2028,8.1694
3311270,-13.2028,8.2007
3311271,-13.2028,8.2316
3311272,-14.2028,8.2699
3311273,-11.2028,8.2861
3311274,-11.2028,8.3021
3311275,-13.2028,8.3316
3311276,-24.2028,8.4738
3311277,-25.2028,8.6257
3311278,-23.2028,8.7482
3311279,-25.2028,8.8928
3311280,-15.2028,8.9315
3311281,-14.2028,8.9624
3311282,-14.2028,8.9928
3311283,-23.2028,9.1062
3311284,-25.2028,9.2406
3311285,-24.2028,9.3601
3311286,-23.2028,9.4661
3311287,-16.2028,9.5062
3311288,-24.2028,9.6198
3311289,-25.2028,9.7422
3311290,-23.2028,9.8407
3311291,-27.2028,9.9811
3311292,-27.2028,10.1185
3311293,-24.2028,10.2205
3311294,-24.2028,10.3206
3311295,-24.2028,10.4189
3311296,-24.2028,10.5155
3311297,-23.2028,10.6010
3311298,-23.2028,10.6851
3311299,-23.2028,10.7678
3311300,-14.2028,10.7844
3311301,-14.2028,10.8008
3311302,-15.2028,10.8227
3311303,-23.2028,10.9025
3311304,-23.2028,10.9811
3311305,-15.2028,11.0016
3311306,-15.2028,11.0219
3311307,-24.2028,11.1069
3311308,-14.2028,11.1211
3311309,-14.2028,11.1352
3311310,-15.2028,11.1544
3311311,-16.2028,11.1790
3311312,-15.2028,11.1978
3311313,-15.2028,11.2165
3311314,-22.2028,11.2807
3311315,-14.2028,11.2937
3311316,-14.2028,11.3065
3311317,-14.2028,11.3192
3311318,-14.2028,11.3318
3311319,-13.2028,11.3396
3311320,-13.2028,11.3474
3311321,-13.2028,11.3551
3311322,-13.2028,11.3627
3311323,-13.2028,11.3702
3311324,-14.2028,11.3823
3311325,-11.2028,11.3816
3311326,-12.2028,11.3848
3311327,-13.2028,11.3922
3311328,-11.2028,11.3915
3311329,-11.2028,11.3908
3311330,-10.2028,11.3866
3311331,-11.2028,11.3859
3311332,-10.2028,11.3818
3311333,-9.2028,11.3746
3311334,-9.2028,11.3674
3311335,-7.2028,11.3550
3311336,-7.2028,11.3427
3311337,1.7972,11.3228
3311338,1.7972,11.3029
3311339,2.7972,11.2839
3311340,2.7972,11.2649
3311341,3.7972,11.2472
3311342,3.7972,11.2295
3311343,0.7972,11.2097
3311344,-6.2028,11.1960
3311345,-7.2028,11.1845
3311346,-6.2028,11.1709
3311347,-7.2028,11.1596
3311348,-9.2028,11.1534
3311349,1.7972,11.1346
3311350,1.7972,11.1158
3311351,-7.2028,11.1048
3311352,-6.2028,11.0917
3311353,1.7972,11.0732
3311354,2.7972,11.0556
3311355,3.7972,11.0390
3311356,5.7972,11.0255
3311357,9.7972,11.0216
3311358,4.7972,11.0066
3311359,2.7972,10.9894
3311360,0.7972,10.9712
3311361,-8.2028,10.9631
3311362,-10.2028,10.9607
3311363,-8.2028,10.9527
3311364,-7.2028,10.9425
3311365,1.7972,10.9250
3311366,4.7972,10.9106
3311367,4.7972,10.8963
3311368,2.7972,10.8797
3311369,2.7972,10.8633
3311370,2.7972,10.8469
3311371,1.7972,10.8299
3311372,3.7972,10.8147
3311373,5.7972,10.8024
3311374,5.7972,10.7901
3311375,5.7972,10.7779
3311376,6.7972,10.7677
3311377,6.7972,10.7574
3311378,7.7972,10.7494
3311379,6.7972,10.7393
3311380,7.7972,10.7314
3311381,6.7972,10.7213
3311382,7.7972,10.7135
3311383,8.7972,10.7081
3311384,7.7972,10.7003
3311385,15.7972,10.7197
3311386,16.7972,10.7436
3311387,17.7972,10.7722
3311388,17.7972,10.8006
3311389,15.7972,10.8193
3311390,8.7972,10.8137
3311391,17.7972,10.8416
3311392,15.7972,10.8599
3311393,9.7972,10.8569
3311394,17.7972,10.8843
3311395,17.7972,10.9114
3311396,17.7972,10.9384
3311397,18.7972,10.9700
3311398,17.7972,10.9965
3311399,17.7972,11.0227
3311400,17.7972,11.0487
3311401,8.7972,11.0428
3311402,15.7972,11.0597
3311403,15.7972,11.0764
3311404,7.7972,11.0683
3311405,6.7972,11.0583
3311406,7.7972,11.0503
3311407,7.7972,11.0423
3311408,7.7972,11.0343
3311409,7.7972,11.0264
3311410,6.7972,11.0166
3311411,7.7972,11.0088
3311412,15.7972,11.0253
3311413,16.7972,11.0459
3311414,17.7972,11.0708
3311415,17.7972,11.0955
3311416,16.7972,11.1156
3311417,9.7972,11.1121
3311418,8.7972,11.1063
3311419,16.7972,11.1262
3311420,8.7972,11.1204
3311421,7.7972,11.1126
3311422,5.7972,11.1014
3311423,7.7972,11.0937
3311424,5.7972,11.0826
3311425,5.7972,11.0716
3311426,7.7972,11.0639
3311427,16.7972,11.0836
3311428,16.7972,11.1031
3311429,18.7972,11.1311
3311430,17.7972,11.1545
3311431,8.7972,11.1488
3311432,7.7972,11.1412
3311433,7.7972,11.1336
3311434,6.7972,11.1242
3311435,7.7972,11.1167
3311436,9.7972,11.1134
3311437,8.7972,11.1079
3311438,17.7972,11.1309
3311439,16.7972,11.1496
3311440,8.7972,11.1441
3311441,8.7972,11.1385
3311442,6.7972,11.1294
3311443,5.7972,11.1188
3311444,6.7972,11.1097
3311445,6.7972,11.1007
3311446,6.7972,11.0917
3311447,5.7972,11.0813
3311448,6.7972,11.0724
3311449,6.7972,11.0635
3311450,7.7972,11.0564
3311451,16.7972,11.0748
3311452,16.7972,11.0932
3311453,17.7972,11.1154
3311454,16.7972,11.1335
3311455,15.7972,11.1478
3311456,6.7972,11.1389
3311457,6.7972,11.1301
3311458,6.7972,11.1213
3311459,6.7972,11.1126
3311460,4.7972,11.1013
3311461,5.7972,11.0912
3311462,7.7972,11.0842
3311463,7.7972,11.0773
3311464,9.7972,11.0743
3311465,17.7972,11.0959
3311466,7.7972,11.0890
3311467,7.7972,11.0821
3311468,6.7972,11.0736
3311469,6.7972,11.0652
3311470,5.7972,11.0554
3311471,4.7972,11.0445
3311472,4.7972,11.0336
3311473,3.7972,11.0218
3311474,4.7972,11.0110
3311475,4.7972,11.0003
3311476,5.7972,10.9907
3311477,5.7972,10.9812
3311478,4.7972,10.9706
3311479,4.7972,10.9600
3311480,1.7972,10.9473
3311481,3.7972,10.9358
3311482,3.7972,10.9244
3311483,3.7972,10.9131
3311484,3.7972,10.9017
3311485,4.7972,10.8914
3311486,6.7972,10.8836
3311487,3.7972,10.8724
3311488,3.7972,10.8612
3311489,2.7972,10.8494
3311490,1.7972,10.8371
3311491,1.7972,10.8249
3311492,1.7972,10.8127
3311493,2.7972,10.8010
3311494,0.7972,10.7887
3311495,0.7972,10.7763
3311496,2.7972,10.7648
3311497,3.7972,10.7540
3311498,1.7972,10.7421
3311499,-7.2028,10.7353
3311500,1.7972,10.7235
3311501,3.7972,10.7128
3311502,-7.2028,10.7062
3311503,-7.2028,10.6996
3311504,-7.2028,10.6930
3311505,2.7972,10.6818
3311506,1.7972,10.6701
3311507,2.7972,10.6590
3311508,3.7972,10.6486
3311509,3.7972,10.6383
3311510,3.7972,10.6279
3311511,2.7972,10.6170
3311512,4.7972,10.6076
3311513,2.7972,10.5967
3311514,2.7972,10.5859
3311515,2.7972,10.5750
3311516,3.7972,10.5649
3311517,3.7972,10.5549
3311518,3.7972,10.5448
3311519,3.7972,10.5348
3311520,2.7972,10.5242
3311521,2.7972,10.5136
3311522,2.7972,10.5030
3311523,4.7972,10.4940
3311524,3.7972,10.4842
3311525,2.7972,10.4737
3311526,2.7972,10.4633
3311527,2.7972,10.4528
3311528,3.7972,10.4431
3311529,5.7972,10.4354
3311530,8.7972,10.4322
3311531,8.7972,10.4290
3311532,15.7972,10.4433
3311533,7.7972,10.4384
3311534,5.7972,10.4308
3311535,3.7972,10.4213
3311536,2.7972,10.4111
3311537,3.7972,10.4017
3311538,5.7972,10.3942
3311539,3.7972,10.3847
3311540,2.7972,10.3747
3311541,2.7972,10.3647
3311542,2.7972,10.3547
3311543,1.7972,10.3443
3311544,1.7972,10.3340
3311545,0.7972,10.3234
3311546,0.7972,10.3128
3311547,0.7972,10.3023
3311548,-8.2028,10.2984
3311549,3.7972,10.2893
3311550,5.7972,10.2821
3311551,3.7972,10.2731
3311552,1.7972,10.2630
3311553,0.7972,10.2526
3311554,1.7972,10.2425
3311555,-10.2028,10.2425
3311556,-10.2028,10.2424
3311557,-9.2028,10.2404
3311558,-13.2028,10.2472
3311559,-14.2028,10.2567
3311560,-8.2028,10.2530
3311561,-7.2028,10.2573
3311562,2.7972,10.2573
3311563,1.7972,10.2573
3311564,1.7972,10.2568
3311565,1.7972,10.2549
3311566,1.7972,10.2538
3311567,-9.2028,10.2606
3311568,-8.2028,10.2639
3311569,-9.2028,10.2699
3311570,-9.2028,10.2759
3311571,-9.2028,10.2834
3311572,-9.2028,10.2909
3311573,-10.2028,10.2996
3311574,-11.2028,10.3110
3311575,-10.2028,10.3204
3311576,1.7972,10.3199
3311577,1.7972,10.3195
3311578,-10.2028,10.3288
3311579,-12.2028,10.3429
3311580,-13.2028,10.3590
3311581,-12.2028,10.3726
3311582,-11.2028,10.3839
3311583,-9.2028,10.3907
3311584,-8.2028,10.3958
3311585,-11.2028,10.4071
3311586,-9.2028,10.4149
3311587,-9.2028,10.4223
3311588,-9.2028,10.4301
3311589,0.7972,10.4294
3311590,-8.2028,10.4351
3311591,1.7972,10.4340
3311592,0.7972,10.4333
3311593,-7.2028,10.4369
3311594,1.7972,10.4359
3311595,-8.2028,10.4420
3311596,-8.2028,10.4420
3311597,-7.2028,10.4467
3311598,-8.2028,10.4528
3311599,3.7972,10.4539
3311600,2.7972,10.4543
3311601,1.7972,10.4539
3311602,-8.2028,10.4600
3311603,-7.2028,10.4646
3311604,-7.2028,10.4695
3311605,1.7972,10.4634
3311606,1.7972,10.4588
3311607,3.7972,10.4520
3311608,5.7972,10.4471
3311609,6.7972,10.4479
3311610,4.7972,10.4498
3311611,4.7972,10.4517
3311612,5.7972,10.4485
3311613,6.7972,10.4492
3311614,6.7972,10.4522
3311615,6.7972,10.4553
3311616,8.7972,10.4613
3311617,8.7972,10.4684
3311618,9.7972,10.4772
3311619,17.7972,10.5052
3311620,16.7972,10.5277
3311621,17.7972,10.5555
3311622,17.7972,10.5848
3311623,17.7972,10.6139
3311624,9.7972,10.6216
3311625,18.7972,10.6534
3311626,19.7972,10.6894
3311627,19.7972,10.7247
3311628,22.7972,10.7723
3311629,22.7972,10.8183
3311630,31.7972,10.9072
3311631,33.7972,11.0072
3311632,33.7972,11.1074
3311633,32.7972,11.2009
3311634,34.7972,11.3064
3311635,33.7972,11.4029
3311636,33.7972,11.4987
3311637,33.7972,11.5936
3311638,33.7972,11.6878
3311639,34.7972,11.7880
3311640,33.7972,11.8833
3311641,34.7972,11.9836
3311642,33.7972,12.0758
3311643,33.7972,12.1688
3311644,33.7972,12.2604
3311645,36.7972,12.3685
3311646,37.7972,12.4816
3311647,36.7972,12.5870
3311648,36.7972,12.6914
3311649,37.7972,12.7999
3311650,36.7972,12.9027
3311651,35.7972,12.9990
3311652,34.7972,13.0912
3311653,34.7972,13.1828
3311654,34.7972,13.2737
3311655,35.7972,13.3682
3311656,36.7972,13.4634
3311657,33.7972,13.5218
3311658,36.7972,13.5983
3311659,38.7972,13.6880
3311660,37.7972,13.7715
3311661,35.7972,13.8586
3311662,36.7972,13.9358
3311663,36.7972,14.0283
3311664,35.7972,14.1150
3311665,37.7972,14.2104
3311666,38.7972,14.2985
3311667,36.7972,14.3887
3311668,33.7972,14.4646
3311669,24.7972,14.5029
3311670,23.7972,14.5366
3311671,21.7972,14.5475
3311672,21.7972,14.5583
3311673,24.7972,14.5952
3311674,23.7972,14.6298
3311675,24.7972,14.6702
3311676,24.7972,14.7089
3311677,24.7972,14.7454
3311678,22.7972,14.7541
3311679,22.7972,14.7678
3311680,21.7972,14.7786
3311681,23.7972,14.7978
3311682,23.7972,14.8192
3311683,24.7972,14.8416
3311684,32.7972,14.8927
3311685,32.7972,14.9606
3311686,22.7972,14.9931
3311687,33.7972,15.0676
3311688,32.7972,15.1201
3311689,33.7972,15.1697
3311690,25.7972,15.1902
3311691,33.7972,15.2445
3311692,33.7972,15.3029
3311693,25.7972,15.3424
3311694,23.7972,15.3742
3311695,31.7972,15.4336
3311696,37.7972,15.5032
3311697,39.7972,15.5798
3311698,39.7972,15.6610
3311699,38.7972,15.7539
3311700,33.7972,15.8233
3311701,25.7972,15.8624
3311702,20.7972,15.8867
3311703,21.7972,15.9151
3311704,23.7972,15.9478
3311705,24.7972,15.9814
3311706,23.7972,15.9992
3311707,25.7972,16.0210
3311708,24.7972,16.0418
3311709,33.7972,16.1090
3311710,34.7972,16.1826
3311711,38.7972,16.2745
3311712,40.7972,16.3764
3311713,37.7972,16.4632
3311714,38.7972,16.5542
3311715,36.7972,16.6358
3311716,32.7972,16.6972
3311717,23.7972,16.7270
3311718,21.7972,16.7554
3311719,22.7972,16.7862
3311720,23.7972,16.8197
3311721,33.7972,16.8870
3311722,34.7972,16.9577
3311723,34.7972,17.0288
3311724,33.7972,17.0955
3311725,34.7972,17.1660
3311726,34.7972,17.2362
3311727,35.7972,17.3100
3311728,32.7972,17.3718
3311729,32.7972,17.4332
3311730,33.7972,17.4981
3311731,34.7972,17.5670
3311732,33.7972,17.6317
3311733,34.7972,17.6998
3311734,34.7972,17.7679
3311735,34.7972,17.8355
3311736,35.7972,17.9070
3311737,35.7972,17.9783
3311738,34.7972,18.0453
3311739,33.7972,18.1081
3311740,36.7972,18.1822
3311741,35.7972,18.2522
3311742,35.7972,18.3221
3311743,35.7972,18.3918
3311744,34.7972,18.4571
3311745,37.7972,18.5343
3311746,38.7972,18.6153
3311747,38.7972,18.6960
3311748,36.7972,18.7678
3311749,36.7972,18.8397
3311750,39.7972,18.9235
3311751,39.7972,19.0050
3311752,38.7972,19.0813
3311753,36.7972,19.1486
3311754,37.7972,19.2204
3311755,36.7972,19.2880
3311756,38.7972,19.3624
3311757,36.7972,19.4296
3311758,38.7972,19.5049
3311759,38.7972,19.5785
3311760,38.7972,19.6489
3311761,38.7972,19.7189
3311762,39.7972,19.7928
3311763,41.7972,19.8707
3311764,49.7972,19.9876
3311765,48.7972,20.0990
3311766,48.7972,20.2109
3311767,50.7972,20.3320
3311768,49.7972,20.4451
3311769,48.7972,20.5514
3311770,47.7972,20.6539
3311771,39.7972,20.7220
3311772,47.7972,20.8223
3311773,48.7972,20.9303
3311774,51.7972,21.0521
3311775,50.7972,21.1661
3311776,51.7972,21.2650
3311777,54.7972,21.3760
3311778,54.7972,21.4910
3311779,55.7972,21.6060
3311780,65.7972,21.7948
3311781,53.7972,21.9180
3311782,47.7972,22.0129
3311783,38.7972,22.0567
3311784,40.7972,22.1033
3311785,40.7972,22.1521
3311786,50.7972,22.2441
3311787,51.7972,22.3526
3311788,49.7972,22.4372
3311789,48.7972,22.5149
3311790,50.7972,22.6054
3311791,49.7972,22.6822
3311792,41.7972,22.7266
3311793,39.7972,22.7705
3311794,40.7972,22.8178
3311795,39.7972,22.8615
3311796,38.7972,22.9017
3311797,38.7972,22.9438
3311798,37.7972,22.9826
3311799,40.7972,23.0315
3311800,40.7972,23.0950
3311801,39.7972,23.1547
3311802,38.7972,23.2097
3311803,37.7972,23.2480
3311804,38.7972,23.2896
3311805,38.7972,23.3442
3311806,37.7972,23.3955
3311807,35.7972,23.4252
3311808,37.7972,23.4775
3311809,36.7972,23.5265
3311810,37.7972,23.5774
3311811,37.7972,23.6268
3311812,37.7972,23.6774
3311813,38.7972,23.7311
3311814,37.7972,23.7705
3311815,37.7972,23.8221
3311816,36.7972,23.8704
3311817,36.7972,23.9186
3311818,38.7972,23.9731
3311819,38.7972,24.0285
3311820,39.7972,24.0871
3311821,35.7972,24.1330
3311822,34.7972,24.1760
3311823,35.7972,24.2217
3311824,32.7972,24.2578
3311825,34.7972,24.3025
3311826,34.7972,24.3461
3311827,35.7972,24.3915
3311828,35.7972,24.4389
3311829,36.7972,24.4891
3311830,37.7972,24.5431
3311831,39.7972,24.6025
3311832,39.7972,24.6626
3311833,40.7972,24.7265
3311834,36.7972,24.7778
3311835,35.7972,24.8274
3311836,35.7972,24.8769
3311837,33.7972,24.9226
3311838,34.7972,24.9710
3311839,35.7972,25.0220
3311840,35.7972,25.0728
3311841,36.7972,25.1262
3311842,38.7972,25.1854
3311843,38.7972,25.2451
3311844,39.7972,25.3063
3311845,39.7972,25.3667
3311846,38.7972,25.4245
3311847,48.7972,25.5159
3311848,48.7972,25.6058
3311849,39.7972,25.6674
3311850,38.7972,25.7259
3311851,36.7972,25.7764
3311852,38.7972,25.8333
3311853,39.7972,25.8944
3311854,39.7972,25.9552
3311855,39.7972,26.0156
3311856,36.7972,26.0663
3311857,36.7972,26.1145
3311858,37.7972,26.1683
3311859,39.7972,26.2284
3311860,36.7972,26.2800
3311861,36.7972,26.3289
3311862,39.7972,26.3850
3311863,39.7972,26.4424
3311864,40.7972,26.5034
3311865,51.7972,26.6043
3311866,52.7972,26.7080
3311867,53.7972,26.8153
3311868,51.7972,26.9148
3311869,50.7972,27.0103
3311870,49.7972,27.1016
3311871,37.7972,27.1542
3311872,36.7972,27.2035
3311873,36.7972,27.2520
3311874,36.7972,27.3004
3311875,34.7972,27.3434
3311876,33.7972,27.3835
3311877,35.7972,27.4286
3311878,37.7972,27.4784
3311879,39.7972,27.5343
3311880,41.7972,27.5955
3311881,48.7972,27.6800
3311882,48.7972,27.7637
3311883,39.7972,27.8179
3311884,38.7972,27.8697
3311885,39.7972,27.9176
3311886,47.7972,27.9892
3311887,54.7972,28.0850
3311888,52.7972,28.1728
3311889,41.7972,28.2259
3311890,39.7972,28.2793
3311891,38.7972,28.3213
3311892,39.7972,28.3683
3311893,48.7972,28.4488
3311894,48.7972,28.5213
3311895,49.7972,28.5970
3311896,48.7972,28.6691
3311897,48.7972,28.7397
3311898,48.7972,28.8115
3311899,49.7972,28.8865
3311900,50.7972,28.9647
3311901,50.7972,29.0510
3311902,50.7972,29.1311
3311903,49.7972,29.2076
3311904,48.7972,29.2869
3311905,49.7972,29.3699
3311906,48.7972,29.4488
3311907,40.7972,29.5032
3311908,38.7972,29.5521
3311909,50.7972,29.6372
3311910,49.7972,29.7192
3311911,49.7972,29.8005
3311912,48.7972,29.8720
3311913,49.7972,29.9454
3311914,40.7972,29.9904
3311915,36.7972,30.0250
3311916,38.7972,30.0657
3311917,49.7972,30.1449
3311918,50.7972,30.2278
3311919,38.7972,30.2682
3311920,39.7972,30.3180
3311921,53.7972,30.4113
3311922,54.7972,30.5087
3311923,49.7972,30.5879
3311924,50.7972,30.6711
3311925,50.7972,30.7540
3311926,50.7972,30.8358
3311927,51.7972,30.9136
3311928,51.7972,30.9911
3311929,51.7972,31.0662
3311930,53.7972,31.1491
3311931,53.7972,31.2394
3311932,54.7972,31.3334
3311933,52.7972,31.4203
3311934,48.7972,31.4945
3311935,38.7972,31.5404
3311936,37.7972,31.5826
3311937,40.7972,31.6328
3311938,38.7972,31.6703
3311939,37.7972,31.7065
3311940,39.7972,31.7540
3311941,39.7972,31.8014
3311942,40.7972,31.8522
3311943,37.7972,31.8960
3311944,37.7972,31.9393
3311945,37.7972,31.9826
3311946,37.7972,32.0258
3311947,39.7972,32.0741
3311948,38.7972,32.1196
3311949,48.7972,32.1922
3311950,35.7972,32.2301
3311951,22.7972,32.2375
3311952,20.7972,32.2421
3311953,33.7972,32.2677
3311954,39.7972,32.3080
3311955,50.7972,32.3801
3311956,47.7972,32.4492
3311957,48.7972,32.5210
3311958,41.7972,32.5733
3311959,38.7972,32.6181
3311960,35.7972,32.6566
3311961,34.7972,32.6926
3311962,32.7972,32.7237
3311963,36.7972,32.7632
3311964,38.7972,32.8062
3311965,38.7972,32.8424
3311966,35.7972,32.8795
3311967,37.7972,32.9211
3311968,39.7972,32.9678
3311969,38.7972,33.0120
3311970,36.7972,33.0520
3311971,31.7972,33.0818
3311972,24.7972,33.0997
3311973,33.7972,33.1338
3311974,35.7972,33.1717
3311975,32.7972,33.2035
3311976,37.7972,33.2454
3311977,47.7972,33.3131
3311978,48.7972,33.3838
3311979,40.7972,33.4329
3311980,49.7972,33.5069
3311981,49.7972,33.5804
3311982,41.7972,33.6320
3311983,39.7972,33.6786
3311984,48.7972,33.7488
3311985,48.7972,33.8186
3311986,39.7972,33.8640
3311987,38.7972,33.9080
3311988,36.7972,33.9475
3311989,34.7972,33.9829
3311990,33.7972,34.0164
3311991,34.7972,34.0519
3311992,35.7972,34.0894
3311993,38.7972,34.1333
3311994,38.7972,34.1774
3311995,35.7972,34.2148
3311996,34.7972,34.2500
3311997,37.7972,34.2912
3311998,33.7972,34.3244
3311999,35.7972,34.3602
3312000,39.7972,34.4062
3312001,35.7972,34.4430
3312002,20.7972,34.4541
3312003,18.7972,34.4628
3312004,33.7972,34.4944
3312005,35.7972,34.5313
3312006,36.7972,34.5704
3312007,49.7972,34.6419
3312008,55.7972,34.7312
3312009,56.7972,34.8236
3312010,55.7972,34.9124
3312011,50.7972,34.9860
3312012,40.7972,35.0329
3312013,39.7972,35.0779
3312014,48.7972,35.1455
3312015,49.7972,35.2157
3312016,47.7972,35.2801
3312017,38.7972,35.3224
3312018,48.7972,35.3893
3312019,49.7972,35.4589
3312020,48.7972,35.5258
3312021,50.7972,35.5981
3312022,49.7972,35.6675
3312023,39.7972,35.7112
3312024,49.7972,35.7802
3312025,49.7972,35.8492
3312026,49.7972,35.9181
3312027,38.7972,35.9598
3312028,36.7972,35.9970
3312029,34.7972,36.0297
3312030,33.7972,36.0592
3312031,22.7972,36.0715
3312032,25.7972,36.0830
3312033,33.7972,36.1130
3312034,37.7972,36.1516
3312035,51.7972,36.2253
3312036,49.7972,36.2935
3312037,40.7972,36.3389
3312038,39.7972,36.3816
3312039,51.7972,36.4549
3312040,53.7972,36.5339
3312041,56.7972,36.6219
3312042,51.7972,36.6949
3312043,49.7972,36.7623
3312044,40.7972,36.8075
3312045,47.7972,36.8695
3312046,49.7972,36.9367
3312047,50.7972,37.0064
3312048,48.7972,37.0689
3312049,49.7972,37.1354
3312050,40.7972,37.1792
3312051,39.7972,37.2214
3312052,50.7972,37.2906
3312053,49.7972,37.3570
3312054,49.7972,37.4233
3312055,40.7972,37.4649
3312056,39.7972,37.5044
3312057,37.7972,37.5402
3312058,38.7972,37.5757
3312059,37.7972,37.6083
3312060,37.7972,37.6445
3312061,35.7972,37.6771
3312062,34.7972,37.7090
3312063,34.7972,37.7411
3312064,37.7972,37.7788
3312065,49.7972,37.8443
3312066,40.7972,37.8882
3312067,49.7972,37.9513
3312068,48.7972,38.0123
3312069,38.7972,38.0496
3312070,36.7972,38.0829
3312071,49.7972,38.1458
3312072,52.7972,38.2166
3312073,53.7972,38.2895
3312074,53.7972,38.3618
3312075,53.7972,38.4344
3312076,50.7972,38.5014
3312077,47.7972,38.5606
3312078,37.7972,38.5950
3312079,33.7972,38.6207
3312080,24.7972,38.6321
3312081,35.7972,38.6614
3312082,40.7972,38.7012
3312083,35.7972,38.7321
3312084,34.7972,38.7616
3312085,31.7972,38.7844
3312086,32.7972,38.8100
3312087,35.7972,38.8408
3312088,39.7972,38.8794
3312089,39.7972,38.9201
3312090,37.7972,38.9550
3312091,39.7972,38.9956
3312092,48.7972,39.0566
3312093,52.7972,39.1266
3312094,49.7972,39.1898
3312095,50.7972,39.2539
3312096,50.7972,39.3179
3312097,40.7972,39.3589
3312098,48.7972,39.4176
3312099,53.7972,39.4906
3312100,50.7972,39.5557
3312101,36.7972,39.5898
3312102,39.7972,39.6281
3312103,50.7972,39.6919
3312104,52.7972,39.7607
3312105,52.7972,39.8307
3312106,52.7972,39.9005
3312107,49.7972,39.9623
3312108,39.7972,40.0010
3312109,39.7972,40.0395
3312110,40.7972,40.0804
3312111,49.7972,40.1417
3312112,56.7972,40.2211
3312113,57.7972,40.3029
3312114,64.7972,40.4058
3312115,57.7972,40.4873
3312116,53.7972,40.5568
3312117,50.7972,40.6185
3312118,38.7972,40.6532
3312119,33.7972,40.6735
3312120,36.7972,40.6998
3312121,38.7972,40.7290
3312122,50.7972,40.7845
3312123,38.7972,40.8137
3312124,49.7972,40.8720
3312125,53.7972,40.9341
3312126,65.7972,41.0302
3312127,70.7972,41.1427
3312128,67.7972,41.2416
3312129,54.7972,41.3018
3312130,54.7972,41.3500
3312131,65.7972,41.4270
3312132,54.7972,41.4719
3312133,65.7972,41.5503
3312134,70.7972,41.6417
3312135,69.7972,41.7311
3312136,67.7972,41.8138
3312137,66.7972,41.8931
3312138,65.7972,41.9691
3312139,53.7972,42.0092
3312140,53.7972,42.0509
3312141,65.7972,42.1250
3312142,64.7972,42.1975
3312143,67.7972,42.2793
3312144,69.7972,42.3674
3312145,67.7972,42.4438
3312146,67.7972,42.5184
3312147,71.7972,42.6077
3312148,68.7972,42.6869
3312149,67.7972,42.7611
3312150,71.7972,42.8499
3312151,83.7972,42.9836
3312152,98.7972,43.1821
3312153,82.7972,43.3126
3312154,66.7972,43.3876
3312155,63.7972,43.4518
3312156,68.7972,43.5295
3312157,68.7972,43.6119
3312158,69.7972,43.6925
3312159,69.7972,43.7695
3312160,68.7972,43.8449
3312161,71.7972,43.9332
3312162,71.7972,44.0196
3312163,82.7972,44.1444
3312164,71.7972,44.2321
3312165,69.7972,44.3098
3312166,70.7972,44.3889
3312167,80.7972,44.5053
3312168,81.7972,44.6298
3312169,81.7972,44.7658
3312170,72.7972,44.8714
3312171,69.7972,44.9692
3312172,81.7972,45.1073
3312173,80.7972,45.2382
3312174,69.7972,45.3332
3312175,71.7972,45.4333
3312176,81.7972,45.5668
3312177,83.7972,45.7072
3312178,84.7972,45.8529
3312179,85.7972,46.0019
3312180,85.7972,46.1513
3312181,85.7972,46.2983
3312182,84.7972,46.4412
3312183,82.7972,46.5753
3312184,85.7972,46.7101
3312185,87.7972,46.8519
3312186,88.7972,47.0088
3312187,84.7972,47.1373
3312188,84.7972,47.2669
3312189,84.7972,47.3946
3312190,96.7972,47.5779
3312191,86.7972,47.7121
3312192,87.7972,47.8495
3312193,96.7972,48.0311
3312194,95.7972,48.2100
3312195,88.7972,48.3524
3312196,87.7972,48.4821
3312197,86.7972,48.6047
3312198,85.7972,48.7234
3312199,99.7972,48.8966
3312200,101.7972,49.0848
3312201,99.7972,49.2738
3312202,103.7972,49.4832
3312203,101.7972,49.6826
3312204,100.7972,49.8754
3312205,104.7972,50.0828
3312206,117.7972,50.3478
3312207,130.7972,50.6734
3312208,118.7972,50.9390
3312209,113.7972,51.1703
3312210,88.7972,51.3006
3312211,82.7972,51.4048
3312212,82.7972,51.5056
3312213,86.7972,51.6240
3312214,86.7972,51.7407
3312215,97.7972,51.8991
3312216,97.7972,52.0624
3312217,85.7972,52.1928
3312218,83.7972,52.3181
3312219,71.7972,52.4066
3312220,66.7972,52.4809
3312221,67.7972,52.5466
3312222,70.7972,52.6189
3312223,85.7972,52.7357
3312224,89.7972,52.8668
3312225,85.7972,52.9830
3312226,80.7972,53.0832
3312227,81.7972,53.1851
3312228,71.7972,53.2617
3312229,67.7972,53.3278
3312230,72.7972,53.4057
3312231,85.7972,53.5207
3312232,86.7972,53.6400
3312233,87.7972,53.7610
3312234,83.7972,53.8690
3312235,88.7972,53.9927
3312236,104.7972,54.1721
3312237,114.7972,54.3913
3312238,100.7972,54.5555
3312239,96.7972,54.7061
3312240,88.7972,54.8254
3312241,85.7972,54.9362
3312242,69.7972,55.0015
3312243,69.7972,55.0667
3312244,99.7972,55.2254
3312245,104.7972,55.3981
3312246,114.7972,55.6084
3312247,104.7972,55.7786
3312248,87.7972,55.8924
3312249,85.7972,55.9998
3312250,87.7972,56.1090
3312251,96.7972,56.2476
3312252,96.7972,56.3873
3312253,97.7972,56.5327
3312254,97.7972,56.6764
3312255,97.7972,56.8211
3312256,101.7972,56.9767
3312257,100.7972,57.1311
3312258,96.7972,57.2686
3312259,86.7972,57.3738
3312260,99.7972,57.5209
3312261,99.7972,57.6677
3312262,97.7972,57.8059
3312263,98.7972,57.9444
3312264,103.7972,58.0874
3312265,104.7972,58.2353
3312266,113.7972,58.4164
3312267,113.7972,58.5937
3312268,112.7972,58.7683
3312269,112.7972,58.9440
3312270,113.7972,59.1246
3312271,113.7972,59.3166
3312272,102.7972,59.4560
3312273,88.7972,59.5485
3312274,72.7972,59.5924
3312275,67.7972,59.6263
3312276,94.7972,59.7319
3312277,114.7972,59.9020
3312278,129.7972,60.1327
3312279,130.7972,60.3650
3312280,129.7972,60.5720
3312281,117.7972,60.7530
3312282,116.7972,60.9397
3312283,116.7972,61.1385
3312284,119.7972,61.3457
3312285,119.7972,61.5521
3312286,120.7972,61.7470
3312287,118.7972,61.9318
3312288,103.7972,62.0656
3312289,97.7972,62.1812
3312290,88.7972,62.2664
3312291,99.7972,62.3865
3312292,112.7972,62.5621
3312293,113.7972,62.7436
3312294,101.7972,62.8820
3312295,100.7972,63.0183
3312296,115.7972,63.2069
3312297,132.7972,63.4616
3312298,134.7972,63.7248
3312299,144.7972,64.0270
3312300,129.7972,64.2637
3312301,115.7972,64.4474
3312302,113.7972,64.6248
3312303,113.7972,64.8028
3312304,130.7972,65.0431
3312305,135.7972,65.3030
3312306,134.7972,65.5589
3312307,129.7972,65.7959
3312308,113.7972,65.9707
3312309,86.7972,66.0643
3312310,65.7972,66.1082
3312311,73.7972,66.1690
3312312,99.7972,66.2978
3312313,128.7972,66.5249
3312314,135.7972,66.7801
3312315,144.7972,67.0721
3312316,148.7972,67.3813
3312317,145.7972,67.6760
3312318,129.7972,67.9023
3312319,102.7972,68.0356
3312320,88.7972,68.1282
3312321,96.7972,68.2468
3312322,100.7972,68.3778
3312323,134.7972,68.6244
3312324,151.7972,68.9437
3312325,146.7972,69.2381
3312326,145.7972,69.5270
3312327,132.7972,69.7618
3312328,130.7972,69.9883
3312329,131.7972,70.2168
3312330,129.7972,70.4360
3312331,119.7972,70.6171
3312332,117.7972,70.7909
3312333,118.7972,70.9666
3312334,117.7972,71.1428
3312335,117.7972,71.3196
3312336,117.7972,71.4960
3312337,118.7972,71.6772
3312338,111.7972,71.8345
3312339,99.7972,71.9552
3312340,98.7972,72.0729
3312341,114.7972,72.2368
3312342,120.7972,72.4177
3312343,115.7972,72.5819
3312344,86.7972,72.6639
3312345,81.7972,72.7341
3312346,82.7972,72.8076
3312347,83.7972,72.8714
3312348,80.7972,72.9282
3312349,87.7972,73.0122
3312350,117.7972,73.1814
3312351,118.7972,73.3555
3312352,112.7972,73.5083
3312353,96.7972,73.6142
3312354,83.7972,73.6880
3312355,98.7972,73.7989
3312356,102.7972,73.9236
3312357,112.7972,74.0773
3312358,116.7972,74.2419
3312359,129.7972,74.4472
3312360,132.7972,74.6656
3312361,120.7972,74.8427
3312362,114.7972,74.9975
3312363,112.7972,75.1458
3312364,103.7972,75.2670
3312365,98.7972,75.3609
3312366,98.7972,75.4534
3312367,98.7972,75.5444
3312368,97.7972,75.6354
3312369,97.7972,75.7277
3312370,87.7972,75.7967
3312371,97.7972,75.9040
3312372,87.7972,75.9876
3312373,85.7972,76.0666
3312374,87.7972,76.1501
3312375,87.7972,76.2354
3312376,83.7972,76.3125
3312377,83.7972,76.3877
3312378,86.7972,76.4676
3312379,85.7972,76.5431
3312380,85.7972,76.6164
3312381,85.7972,76.6814
3312382,85.7972,76.7463
3312383,85.7972,76.8215
3312384,85.7972,76.8977
3312385,84.7972,76.9706
3312386,87.7972,77.0410
3312387,84.7972,77.0954
3312388,86.7972,77.1569
3312389,85.7972,77.2296
3312390,80.7972,77.2936
3312391,70.7972,77.3390
3312392,72.7972,77.3870
3312393,82.7972,77.4448
3312394,86.7972,77.5113
3312395,84.7972,77.5721
3312396,67.7972,77.6006
3312397,65.7972,77.6257
3312398,56.7972,77.6366
3312399,64.7972,77.6587
3312400,65.7972,77.6813
3312401,65.7972,77.7038
3312402,65.7972,77.7263
3312403,64.7972,77.7484
3312404,67.7972,77.7769
3312405,67.7972,77.8041
3312406,65.7972,77.8291
3312407,67.7972,77.8668
3312408,81.7972,77.9333
3312409,69.7972,77.9627
3312410,52.7972,77.9667
3312411,51.7972,77.9693
3312412,51.7972,77.9732
3312413,49.7972,77.9732
3312414,49.7972,77.9836
3312415,48.7972,77.9968
3312416,48.7972,78.0080
3312417,48.7972,78.0068
3312418,48.7972,78.0042
3312419,37.7972,78.0032
3312420,39.7972,78.0032
3312421,51.7972,78.0005
3312422,52.7972,77.9978
3312423,50.7972,77.9990
3312424,39.7972,77.9863
3312425,48.7972,77.9837
3312426,40.7972,77.9720
3312427,38.7972,77.9569
3312428,38.7972,77.9417
3312429,40.7972,77.9287
3312430,38.7972,77.9109
3312431,40.7972,77.8951
3312432,48.7972,77.8871
3312433,40.7972,77.8727
3312434,38.7972,77.8614
3312435,39.7972,77.8624
3312436,38.7972,77.8634
3312437,37.7972,77.8604
3312438,35.7972,77.8575
3312439,24.7972,77.8471
3312440,23.7972,77.8340
3312441,33.7972,77.8283
3312442,33.7972,77.8216
3312443,24.7972,77.8111
3312444,21.7972,77.7989
3312445,21.7972,77.7866
3312446,18.7972,77.7728
3312447,21.7972,77.7586
3312448,22.7972,77.7459
3312449,22.7972,77.7219
3312450,18.7972,77.7100
3312451,21.7972,77.7094
3312452,37.7972,77.7222
3312453,33.7972,77.7222
3312454,34.7972,77.7174
3312455,40.7972,77.7056
3312456,39.7972,77.6966
3312457,40.7972,77.6874
3312458,37.7972,77.6833
3312459,35.7972,77.6804
3312460,33.7972,77.6786
3312461,33.7972,77.6777
3312462,32.7972,77.6777
3312463,32.7972,77.6742
3312464,21.7972,77.6609
3312465,20.7972,77.6471
3312466,19.7972,77.6356
3312467,19.7972,77.6223
3312468,17.7972,77.6060
3312469,18.7972,77.5911
3312470,15.7972,77.5769
3312471,7.7972,77.5646
3312472,8.7972,77.5577
3312473,17.7972,77.5470
3312474,7.7972,77.5313
3312475,5.7972,77.5179
3312476,4.7972,77.4997
3312477,4.7972,77.4705
3312478,3.7972,77.4400
3312479,1.7972,77.4185
3312480,-7.2028,77.3872
3312481,0.7972,77.3551
3312482,-7.2028,77.3332
3312483,-0.2028,77.3127
3312484,-8.2028,77.2828
3312485,-9.2028,77.2531
3312486,-10.2028,77.2339
3312487,-8.2028,77.2153
3312488,-9.2028,77.1989
3312489,-8.2028,77.1840
3312490,-12.2028,77.1712
3312491,-12.2028,77.1574
3312492,-8.2028,77.1417
3312493,0.7972,77.1222
3312494,1.7972,77.1027
3312495,-12.2028,77.0880
3312496,-25.2028,77.0805
3312497,-26.2028,77.0709
3312498,-29.2028,77.0671
3312499,-28.2028,77.0608
3312500,-28.2028,77.0506
3312501,-26.2028,77.0429
3312502,-14.2028,77.0399
3312503,-23.2028,77.0423
3312504,-27.2028,77.0371
3312505,-28.2028,77.0308
3312506,-26.2028,77.0221
3312507,-26.2028,76.9988
3312508,-24.2028,76.9660
3312509,-23.2028,76.9310
3312510,-28.2028,76.9009
3312511,-31.2028,76.8800
3312512,-31.2028,76.8710
3312513,-30.2028,76.8623
3312514,-27.2028,76.8409
3312515,-25.2028,76.8169
3312516,-28.2028,76.7975
3312517,-28.2028,76.7883
3312518,-28.2028,76.7676
3312519,-28.2028,76.7457
3312520,-25.2028,76.7229
3312521,-25.2028,76.6976
3312522,-25.2028,76.6735
3312523,-24.2028,76.6605
3312524,-27.2028,76.6378
3312525,-30.2028,76.6174
3312526,-29.2028,76.5961
3312527,-28.2028,76.5869
3312528,-30.2028,76.5811
3312529,-31.2028,76.5780
3312530,-41.2028,76.5852
3312531,-42.2028,76.6017
3312532,-44.2028,76.6185
3312533,-47.2028,76.6327
3312534,-54.2028,76.6524
3312535,-47.2028,76.6465
3312536,-43.2028,76.6385
3312537,-39.2028,76.6368
3312538,-39.2028,76.6362
3312539,-43.2028,76.6255
3312540,-45.2028,76.6144
3312541,-43.2028,76.5967
3312542,-42.2028,76.5849
3312543,-46.2028,76.5804
3312544,-45.2028,76.5853
3312545,-47.2028,76.5846
3312546,-55.2028,76.5920
3312547,-55.2028,76.5981
3312548,-47.2028,76.5961
3312549,-41.2028,76.5859
3312550,-40.2028,76.5853
3312551,-40.2028,76.5857
3312552,-43.2028,76.5764
3312553,-46.2028,76.5719
3312554,-60.2028,76.5868
3312555,-60.2028,76.6124
3312556,-57.2028,76.6344
3312557,-58.2028,76.6600
3312558,-63.2028,76.6925
3312559,-71.2028,76.7399
3312560,-71.2028,76.7874
3312561,-59.2028,76.8163
3312562,-48.2028,76.8308
3312563,-44.2028,76.8405
3312564,-47.2028,76.8509
3312565,-62.2028,76.8689
3312566,-62.2028,76.8976
3312567,-60.2028,76.9125
3312568,-58.2028,76.9256
3312569,-58.2028,76.9501
3312570,-56.2028,76.9735
3312571,-57.2028,76.9838
3312572,-57.2028,76.9901
3312573,-60.2028,76.9996
3312574,-61.2028,77.0106
3312575,-61.2028,77.0217
3312576,-59.2028,77.0337
3312577,-57.2028,77.0465
3312578,-60.2028,77.0750
3312579,-70.2028,77.1241
3312580,-62.2028,77.1663
3312581,-60.2028,77.1967
3312582,-57.2028,77.2175
3312583,-55.2028,77.2404
3312584,-58.2028,77.2685
3312585,-59.2028,77.3008
3312586,-60.2028,77.3338
3312587,-62.2028,77.3672
3312588,-61.2028,77.3952
3312589,-61.2028,77.4231
3312590,-62.2028,77.4546
3312591,-62.2028,77.4841
3312592,-62.2028,77.5033
3312593,-60.2028,77.5141
3312594,-60.2028,77.5289
3312595,-59.2028,77.5408
3312596,-60.2028,77.5543
3312597,-58.2028,77.5765
3312598,-58.2028,77.5894
3312599,-63.2028,77.6036
3312600,-73.2028,77.6394
3312601,-62.2028,77.6718
3312602,-60.2028,77.6981
3312603,-56.2028,77.7055
3312604,-75.2028,77.7424
3312605,-89.2028,77.8089
3312606,-74.2028,77.8438
3312607,-78.2028,77.8905
3312608,-78.2028,77.9487
3312609,-78.2028,78.0068
3312610,-75.2028,78.0579
3312611,-73.2028,78.0948
3312612,-74.2028,78.1240
3312613,-77.2028,78.1575
3312614,-78.2028,78.1820
3312615,-78.2028,78.2175
3312616,-76.2028,78.2548
3312617,-77.2028,78.2979
3312618,-79.2028,78.3588
3312619,-88.2028,78.4435
3312620,-79.2028,78.5062
3312621,-88.2028,78.5860
3312622,-88.2028,78.6522
3312623,-90.2028,78.7364
3312624,-92.2028,78.8129
3312625,-91.2028,78.8817
3312626,-91.2028,78.9322
3312627,-94.2028,78.9811
3312628,-95.2028,79.0377
3312629,-92.2028,79.1072
3312630,-91.2028,79.1744
3312631,-90.2028,79.2224
3312632,-92.2028,79.2918
3312633,-93.2028,79.3468
3312634,-104.2028,79.4204
3312635,-105.2028,79.4984
3312636,-104.2028,79.5771
3312637,-105.2028,79.6601
3312638,-108.2028,79.7526
3312639,-111.2028,79.8713
3312640,-122.2028,80.0219
3312641,-136.2028,80.1994
3312642,-139.2028,80.3885
3312643,-126.2028,80.5293
3312644,-124.2028,80.6603
3312645,-109.2028,80.7511
3312646,-107.2028,80.8364
3312647,-109.2028,80.9201
3312648,-110.2028,81.0117
3312649,-120.2028,81.1332
3312650,-121.2028,81.2507
3312651,-125.2028,81.3571
3312652,-125.2028,81.4298
3312653,-124.2028,81.5349
3312654,-124.2028,81.6693
3312655,-124.2028,81.8082
3312656,-125.2028,81.9419
3312657,-125.2028,82.0753
3312658,-126.2028,82.2099
3312659,-134.2028,82.3696
3312660,-136.2028,82.5372
3312661,-137.2028,82.7026
3312662,-137.2028,82.8678
3312663,-135.2028,83.0055
3312664,-136.2028,83.1667
3312665,-137.2028,83.3343
3312666,-136.2028,83.4966
3312667,-129.2028,83.6183
3312668,-136.2028,83.7600
3312669,-137.2028,83.9048
3312670,-127.2028,84.0343
3312671,-137.2028,84.2002
3312672,-137.2028,84.3442
3312673,-137.2028,84.4899
3312674,-138.2028,84.6581
3312675,-139.2028,84.8259
3312676,-136.2028,84.9656
3312677,-135.2028,85.0980
3312678,-134.2028,85.2251
3312679,-126.2028,85.3255
3312680,-125.2028,85.4229
3312681,-125.2028,85.5202
3312682,-125.2028,85.6194
3312683,-124.2028,85.7194
3312684,-123.2028,85.8106
3312685,-125.2028,85.9034
3312686,-126.2028,85.9969
3312687,-127.2028,86.1014
3312688,-137.2028,86.2364
3312689,-139.2028,86.3776
3312690,-136.2028,86.4839
3312691,-136.2028,86.6112
3312692,-137.2028,86.7394
3312693,-138.2028,86.8515
3312694,-139.2028,86.9689
3312695,-140.2028,87.1041
3312696,-138.2028,87.2348
3312697,-138.2028,87.3673
3312698,-137.2028,87.4984
3312699,-136.2028,87.5966
3312700,-136.2028,87.6900
3312701,-139.2028,87.7973
3312702,-138.2028,87.8921
3312703,-139.2028,87.9946
3312704,-141.2028,88.1057
3312705,-142.2028,88.2105
3312706,-142.2028,88.2824
3312707,-142.2028,88.3176
3312708,-141.2028,88.3836
3312709,-142.2028,88.4658
3312710,-141.2028,88.6020
3312711,-139.2028,88.7432
3312712,-139.2028,88.8842
3312713,-138.2028,89.0142
3312714,-139.2028,89.1472
3312715,-136.2028,89.2479
3312716,-139.2028,89.3578
3312717,-139.2028,89.4922
3312718,-140.2028,89.6332
3312719,-139.2028,89.7918
3312720,-141.2028,89.9640
3312721,-142.2028,90.1375
3312722,-140.2028,90.2998
3312723,-141.2028,90.4390
3312724,-140.2028,90.5671
3312725,-142.2028,90.7090
3312726,-143.2028,90.8629
3312727,-143.2028,91.0149
3312728,-142.2028,91.1803
3312729,-142.2028,91.3515
3312730,-141.2028,91.5116
3312731,-141.2028,91.6489
3312732,-142.2028,91.7872
3312733,-142.2028,91.9235
3312734,-143.2028,92.0701
3312735,-144.2028,92.2102
3312736,-143.2028,92.3134
3312737,-151.2028,92.4182
3312738,-153.2028,92.5622
3312739,-151.2028,92.7078
3312740,-151.2028,92.8692
3312741,-153.2028,93.0425
3312742,-154.2028,93.2455
3312743,-153.2028,93.4448
3312744,-152.2028,93.5860
3312745,-154.2028,93.7226
3312746,-152.2028,93.8291
3312747,-153.2028,93.9621
3312748,-154.2028,94.1330
3312749,-155.2028,94.3105
3312750,-155.2028,94.4840
3312751,-155.2028,94.6397
3312752,-156.2028,94.7984
3312753,-156.2028,94.9547
3312754,-155.2028,95.1076
3312755,-155.2028,95.2601
3312756,-155.2028,95.4041
3312757,-156.2028,95.5533
3312758,-155.2028,95.7072
3312759,-156.2028,95.8832
3312760,-157.2028,96.0370
3312761,-158.2028,96.1937
3312762,-158.2028,96.3544
3312763,-159.2028,96.5160
3312764,-168.2028,96.6973
3312765,-168.2028,96.8762
3312766,-168.2028,97.0344
3312767,-168.2028,97.1924
3312768,-170.2028,97.3594
3312769,-169.2028,97.5226
3312770,-169.2028,97.6833
3312771,-170.2028,97.8471
3312772,-172.2028,98.0420
3312773,-173.2028,98.2673
3312774,-174.2028,98.5219
3312775,-172.2028,98.7759
3312776,-172.2028,98.9849
3312777,-171.2028,99.1477
3312778,-172.2028,99.2768
3312779,-182.2028,99.4387
3312780,-182.2028,99.6030
3312781,-174.2028,99.7683
3312782,-182.2028,99.9641
3312783,-183.2028,100.1632
3312784,-182.2028,100.3512
3312785,-182.2028,100.5388
3312786,-183.2028,100.7273
3312787,-184.2028,100.9239
3312788,-182.2028,101.1458
3312789,-182.2028,101.3792
3312790,-182.2028,101.6286
3312791,-182.2028,101.8570
3312792,-182.2028,102.0578
3312793,-182.2028,102.2560
3312794,-182.2028,102.4791
3312795,-182.2028,102.7036
3312796,-182.2028,102.8961
3312797,-182.2028,103.0473
3312798,-173.2028,103.1620
3312799,-172.2028,103.2462
3312800,-169.2028,103.3602
3312801,-168.2028,103.5041
3312802,-166.2028,103.6458
3312803,-158.2028,103.7623
3312804,-157.2028,103.8355
3312805,-155.2028,103.8899
3312806,-154.2028,103.9439
3312807,-153.2028,104.0076
3312808,-154.2028,104.1116
3312809,-154.2028,104.2676
3312810,-154.2028,104.4539
3312811,-156.2028,104.6352
3312812,-155.2028,104.7702
3312813,-155.2028,104.8417
3312814,-155.2028,104.8956
3312815,-158.2028,104.9343
3312816,-158.2028,104.9618
3312817,-159.2028,105.0007
3312818,-159.2028,105.0816
3312819,-157.2028,105.2162
3312820,-156.2028,105.3730
3312821,-154.2028,105.5097
3312822,-153.2028,105.6357
3312823,-152.2028,105.6830
3312824,-142.2028,105.6563
3312825,-140.2028,105.6384
3312826,-137.2028,105.6154
3312827,-136.2028,105.6241
3312828,-136.2028,105.6377
3312829,-135.2028,105.6463
3312830,-136.2028,105.6625
3312831,-127.2028,105.6798
3312832,-127.2028,105.7016
3312833,-135.2028,105.7410
3312834,-126.2028,105.7604
3312835,-124.2028,105.7750
3312836,-123.2028,105.7874
3312837,-123.2028,105.7974
3312838,-123.2028,105.8228
3312839,-110.2028,105.8434
3312840,-105.2028,105.8558
3312841,-89.2028,105.8064
3312842,-71.2028,105.7164
3312843,-59.2028,105.6227
3312844,-60.2028,105.5856
3312845,-63.2028,105.5601
3312846,-90.2028,105.5722
3312847,-109.2028,105.6187
3312848,-122.2028,105.6982
3312849,-125.2028,105.7736
3312850,-136.2028,105.8178
3312851,-141.2028,105.8728
3312852,-139.2028,105.9356
3312853,-127.2028,105.9999
3312854,-120.2028,106.0699
3312855,-106.2028,106.0843
3312856,-95.2028,106.0701
3312857,-90.2028,106.0268
3312858,-89.2028,105.9732
3312859,-91.2028,105.8927
3312860,-92.2028,105.8064
3312861,-94.2028,105.7523
3312862,-104.2028,105.7304
3312863,-108.2028,105.7208
3312864,-110.2028,105.7338
3312865,-120.2028,105.7781
3312866,-123.2028,105.8293
3312867,-124.2028,105.8828
3312868,-121.2028,105.9312
3312869,-110.2028,105.9556
3312870,-106.2028,105.9893
3312871,-104.2028,106.0015
3312872,-95.2028,106.0143
3312873,-94.2028,106.0285
3312874,-92.2028,106.0360
3312875,-90.2028,106.0401
3312876,-89.2028,106.0489
3312877,-88.2028,106.0560
3312878,-79.2028,106.0441
3312879,-77.2028,106.0309
3312880,-73.2028,106.0120
3312881,-62.2028,105.9791
3312882,-61.2028,105.9450
3312883,-63.2028,105.9132
3312884,-63.2028,105.8814
3312885,-74.2028,105.8655
3312886,-74.2028,105.8447
3312887,-78.2028,105.8345
3312888,-78.2028,105.8211
3312889,-77.2028,105.8079
3312890,-72.2028,105.7955
3312891,-58.2028,105.7801
3312892,-39.2028,105.7445
3312893,-13.2028,105.6813
3312894,5.7972,105.6103
3312895,17.7972,105.5452
3312896,16.7972,105.5043
3312897,1.7972,105.4633
3312898,-29.2028,105.4408
3312899,-58.2028,105.4331
3312900,-76.2028,105.4471
3312901,-87.2028,105.4782
3312902,-95.2028,105.5231
3312903,-105.2028,105.5882
3312904,-108.2028,105.6555
3312905,-120.2028,105.7487
3312906,-122.2028,105.8489
3312907,-120.2028,105.9420
3312908,-105.2028,105.9833
3312909,-88.2028,106.0107
3312910,-58.2028,106.0164
3312911,-13.2028,105.9927
3312912,18.7972,105.9707
3312913,34.7972,105.9587
3312914,37.7972,105.9488
3312915,33.7972,105.9371
3312916,7.7972,105.9152
3312917,-13.2028,105.8944
3312918,-26.2028,105.8784
3312919,-42.2028,105.8817
3312920,-48.2028,105.8887
3312921,-59.2028,105.8965
3312922,-59.2028,105.9032
3312923,-58.2028,105.9108
3312924,-62.2028,105.9324
3312925,-60.2028,105.9442
3312926,-59.2028,105.9615
3312927,-55.2028,105.9761
3312928,-46.2028,105.9820
3312929,-40.2028,105.9816
3312930,-29.2028,105.9754
3312931,-15.2028,105.9619
3312932,-7.2028,105.9399
3312933,5.7972,105.9245
3312934,17.7972,105.9133
3312935,17.7972,105.9013
3312936,6.7972,105.8875
3312937,-7.2028,105.8745
3312938,-23.2028,105.8675
3312939,-25.2028,105.8677
3312940,-28.2028,105.8699
3312941,-39.2028,105.8736
3312942,-47.2028,105.8839
3312943,-58.2028,105.9100
3312944,-62.2028,105.9421
3312945,-63.2028,105.9753
3312946,-61.2028,106.0073
3312947,-61.2028,106.0382
3312948,-61.2028,106.0686
3312949,-62.2028,106.1002
3312950,-59.2028,106.1299
3312951,-44.2028,106.1438
3312952,-39.2028,106.1448
3312953,-30.2028,106.1426
3312954,-29.2028,106.1393
3312955,-29.2028,106.1316
3312956,-28.2028,106.1242
3312957,-24.2028,106.1140
3312958,-14.2028,106.1025
3312959,-14.2028,106.0923
3312960,-15.2028,106.0837
3312961,-13.2028,106.0746
3312962,-14.2028,106.0663
3312963,-25.2028,106.0622
3312964,-27.2028,106.0647
3312965,-27.2028,106.0676
3312966,-23.2028,106.0690
3312967,-13.2028,106.0669
3312968,-14.2028,106.0658
3312969,-23.2028,106.0676
3312970,-15.2028,106.0674
3312971,-11.2028,106.0680
3312972,1.7972,106.0673
3312973,8.7972,106.0650
3312974,7.7972,106.0650
3312975,17.7972,106.0677
3312976,17.7972,106.0705
3312977,1.7972,106.0703
3312978,-26.2028,106.0766
3312979,-43.2028,106.0942
3312980,-44.2028,106.1121
3312981,-30.2028,106.1207
3312982,-9.2028,106.1210
3312983,17.7972,106.1240
3312984,32.7972,106.1335
3312985,37.7972,106.1462
3312986,15.7972,106.1475
3312987,-25.2028,106.1529
3312988,-44.2028,106.1705
3312989,-40.2028,106.1851
3312990,-30.2028,106.1923
3312991,-27.2028,106.1978
3312992,-8.2028,106.1978
3312993,3.7972,106.1980
3312994,8.7972,106.1987
3312995,21.7972,106.2017
3312996,20.7972,106.1998
3312997,3.7972,106.1935
3312998,-10.2028,106.1865
3312999,-15.2028,106.1811
3313000,-15.2028,106.1758
3313001,-24.2028,106.1749
3313002,-24.2028,106.1785
3313003,-25.2028,106.1794
3313004,-25.2028,106.1784
3313005,-24.2028,106.1764
3313006,-14.2028,106.1719
3313007,-13.2028,106.1670
3313008,-11.2028,106.1627
3313009,-9.2028,106.1584
3313010,-10.2028,106.1519
3313011,-0.2028,106.1428
3313012,3.7972,106.1337
3313013,6.7972,106.1256
3313014,8.7972,106.1193
3313015,17.7972,106.1163
3313016,20.7972,106.1129
3313017,20.7972,106.1095
3313018,19.7972,106.1057
3313019,18.7972,106.1015
3313020,17.7972,106.0985
3313021,17.7972,106.0955
3313022,9.7972,106.0904
3313023,16.7972,106.0876
3313024,17.7972,106.0836
3313025,17.7972,106.0780
3313026,17.7972,106.0729
3313027,17.7972,106.0684
3313028,17.7972,106.0628
3313029,17.7972,106.0566
3313030,16.7972,106.0432
3313031,16.7972,106.0291
3313032,6.7972,106.0111
3313033,7.7972,105.9907
3313034,5.7972,105.9633
3313035,6.7972,105.9427
3313036,7.7972,105.9256
3313037,7.7972,105.9117
3313038,7.7972,105.8977
3313039,8.7972,105.8808
3313040,16.7972,105.8642
3313041,18.7972,105.8499
3313042,19.7972,105.8368
3313043,21.7972,105.8211
3313044,21.7972,105.8063
3313045,22.7972,105.7901
3313046,33.7972,105.7721
3313047,33.7972,105.7541
3313048,34.7972,105.7445
3313049,35.7972,105.7406
3313050,37.7972,105.7388
3313051,35.7972,105.7356
3313052,35.7972,105.7301
3313053,35.7972,105.7220
3313054,31.7972,105.6973
3313055,23.7972,105.6684
3313056,20.7972,105.6415
3313057,18.7972,105.6128
3313058,19.7972,105.5786
3313059,17.7972,105.5336
3313060,18.7972,105.4889
3313061,22.7972,105.4606
3313062,34.7972,105.4501
3313063,39.7972,105.4465
3313064,49.7972,105.4489
3313065,52.7972,105.4387
3313066,51.7972,105.4274
3313067,39.7972,105.4081
3313068,32.7972,105.3861
3313069,21.7972,105.3585
3313070,9.7972,105.3294
3313071,5.7972,105.2987
3313072,3.7972,105.2677
3313073,5.7972,105.2336
3313074,4.7972,105.1982
3313075,4.7972,105.1628
3313076,7.7972,105.1301
3313077,16.7972,105.1016
3313078,19.7972,105.0709
3313079,19.7972,105.0277
3313080,20.7972,104.9950
3313081,21.7972,104.9650
3313082,21.7972,104.9383
3313083,22.7972,104.9142
3313084,21.7972,104.8865
3313085,22.7972,104.8580
3313086,23.7972,104.8288
3313087,19.7972,104.7956
3313088,20.7972,104.7640
3313089,21.7972,104.7328
3313090,21.7972,104.7004
3313091,22.7972,104.6684
3313092,24.7972,104.6373
3313093,32.7972,104.6129
3313094,33.7972,104.5892
3313095,33.7972,104.5666
3313096,34.7972,104.5435
3313097,36.7972,104.5241
3313098,36.7972,104.5046
3313099,36.7972,104.4793
3313100,36.7972,104.4410
3313101,35.7972,104.4162
3313102,37.7972,104.3952
3313103,40.7972,104.3809
3313104,48.7972,104.3495
3313105,48.7972,104.2961
3313106,41.7972,104.2600
3313107,38.7972,104.2158
3313108,48.7972,104.1799
3313109,38.7972,104.1357
3313110,38.7972,104.0958
3313111,38.7972,104.0588
3313112,37.7972,104.0196
3313113,37.7972,103.9760
3313114,37.7972,103.9309
3313115,37.7972,103.8858
3313116,37.7972,103.8437
3313117,37.7972,103.8000
3313118,36.7972,103.7526
3313119,37.7972,103.6914
3313120,36.7972,103.6439
3313121,37.7972,103.5826
3313122,36.7972,103.5206
3313123,38.7972,103.4565
3313124,39.7972,103.3896
3313125,49.7972,103.3331
3313126,49.7972,103.2766
3313127,54.7972,103.2198
3313128,72.7972,103.1833
3313129,97.7972,103.1936
3313130,118.7972,103.2497
3313131,129.7972,103.3341
3313132,131.7972,103.4199
3313133,116.7972,103.4678
3313134,97.7972,103.4553
3313135,69.7972,103.3953
3313136,52.7972,103.3173
3313137,38.7972,103.2247
3313138,24.7972,103.1171
3313139,17.7972,103.0002
3313140,5.7972,102.8555
3313141,19.7972,102.6788
3313142,37.7972,102.5038
3313143,54.7972,102.3776
3313144,70.7972,102.2759
3313145,82.7972,102.2263
3313146,84.7972,102.1842
3313147,87.7972,102.1429
3313148,88.7972,102.1012
3313149,98.7972,102.0553
3313150,98.7972,102.0070
3313151,87.7972,101.9288
3313152,82.7972,101.8423
3313153,68.7972,101.7372
3313154,53.7972,101.6140
3313155,38.7972,101.4769
3313156,20.7972,101.3265
3313157,2.7972,101.1718
3313158,-8.2028,101.0149
3313159,-6.2028,100.8368
3313160,5.7972,100.6530
3313161,17.7972,100.4690
3313162,20.7972,100.2858
3313163,35.7972,100.1161
3313164,47.7972,99.9535
3313165,52.7972,99.7929
3313166,54.7972,99.6370
3313167,51.7972,99.4963
3313168,37.7972,99.3240
3313169,34.7972,99.1465
3313170,24.7972,98.9894
3313171,17.7972,98.8023
3313172,4.7972,98.6118
3313173,6.7972,98.4212
3313174,20.7972,98.2313
3313175,39.7972,98.0500
3313176,65.7972,97.9049
3313177,70.7972,97.7693
3313178,82.7972,97.6551
3313179,71.7972,97.5447
3313180,53.7972,97.4136
3313181,35.7972,97.2657
3313182,22.7972,97.1098
3313183,21.7972,96.9557
3313184,19.7972,96.8031
3313185,19.7972,96.6451
3313186,17.7972,96.4834
3313187,17.7972,96.3188
3313188,20.7972,96.1277
3313189,33.7972,95.9378
3313190,38.7972,95.7600
3313191,40.7972,95.5835
3313192,38.7972,95.4021
3313193,37.7972,95.2167
3313194,32.7972,95.0243
3313195,24.7972,94.8237
3313196,34.7972,94.6348
3313197,53.7972,94.4634
3313198,97.7972,94.3653
3313199,131.7972,94.3528
3313200,163.7972,94.4405
3313201,182.7972,94.5890
3313202,178.7972,94.7250
3313203,149.7972,94.7573
3313204,104.7972,94.6627
3313205,65.7972,94.4947
3313206,33.7972,94.2926
3313207,8.7972,94.0787
3313208,-10.2028,93.8677
3313209,-15.2028,93.6544
3313210,-25.2028,93.4481
3313211,-27.2028,93.2485
3313212,-26.2028,93.0478
3313213,-15.2028,92.8448
3313214,-10.2028,92.6370
3313215,1.7972,92.4365
3313216,4.7972,92.2269
3313217,4.7972,92.0168
3313218,16.7972,91.8060
3313219,19.7972,91.5990
3313220,22.7972,91.3867
3313221,22.7972,91.1709
3313222,22.7972,90.9608
3313223,24.7972,90.7481
3313224,24.7972,90.5380
3313225,22.7972,90.3201
3313226,23.7972,90.0991
3313227,24.7972,89.8780
3313228,23.7972,89.6591
3313229,33.7972,89.4460
3313230,35.7972,89.2372
3313231,35.7972,89.0279
3313232,37.7972,88.8165
3313233,38.7972,88.6055
3313234,38.7972,88.3908
3313235,49.7972,88.1834
3313236,48.7972,87.9776
3313237,53.7972,87.7503
3313238,53.7972,87.5155
3313239,55.7972,87.2896
3313240,67.7972,87.0801
3313241,80.7972,86.8853
3313242,84.7972,86.6942
3313243,86.7972,86.5101
3313244,96.7972,86.3505
3313245,97.7972,86.1857
3313246,98.7972,86.0301
3313247,100.7972,85.8752
3313248,96.7972,85.7072
3313249,85.7972,85.5119
3313250,73.7972,85.2936
3313251,53.7972,85.0447
3313252,37.7972,84.7742
3313253,36.7972,84.5019
3313254,33.7972,84.2299
3313255,23.7972,83.9502
3313256,34.7972,83.6773
3313257,38.7972,83.4032
3313258,39.7972,83.1330
3313259,39.7972,82.8581
3313260,41.7972,82.5804
3313261,49.7972,82.3069
3313262,48.7972,82.0313
3313263,46.7972,81.7485
3313264,36.7972,81.4184
3313265,36.7972,81.0868
3313266,36.7972,80.7539
3313267,33.7972,80.4170
3313268,33.7972,80.0702
3313269,34.7972,79.7271
3313270,34.7972,79.3824
3313271,35.7972,79.0329
3313272,39.7972,78.6769
3313273,40.7972,78.3159
3313274,49.7972,77.9593
3313275,52.7972,77.6139
3313276,53.7972,77.2683
3313277,52.7972,76.9243
3313278,54.7972,76.5771
3313279,55.7972,76.1832
3313280,54.7972,75.7858
3313281,52.7972,75.4213
3313282,54.7972,75.0199
3313283,66.7972,74.6309
3313284,80.7972,74.2727
3313285,87.7972,73.9287
3313286,103.7972,73.6198
3313287,128.7972,73.3839
3313288,133.7972,73.1752
3313289,128.7972,72.9478
3313290,113.7972,72.6697
3313291,84.7972,72.3110
3313292,65.7972,71.9106
3313293,50.7972,71.4836
3313294,39.7972,71.0400
3313295,36.7972,70.5903
3313296,20.7972,70.1246
3313297,7.7972,69.6504
3313298,5.7972,69.2189
3313299,17.7972,68.7937
3313300,21.7972,68.3832
3313301,33.7972,67.9851
3313302,35.7972,67.5965
3313303,39.7972,67.2488
3313304,41.7972,66.9064
3313305,41.7972,66.5716
3313306,48.7972,66.2494
3313307,48.7972,65.9303
3313308,48.7972,65.6050
3313309,40.7972,65.2670
3313310,38.7972,64.9249
3313311,41.7972,64.5750
3313312,40.7972,64.2268
3313313,40.7972,63.8768
3313314,51.7972,63.5408
3313315,52.7972,63.1898
3313316,54.7972,62.8403
3313317,53.7972,62.4820
3313318,54.7972,62.1233
3313319,53.7972,61.7711
3313320,54.7972,61.4238
3313321,53.7972,61.0828
3313322,54.7972,60.7468
3313323,57.7972,60.4196
3313324,65.7972,60.1560
3313325,69.7972,59.9097
3313326,67.7972,59.6717
3313327,68.7972,59.4397
3313328,69.7972,59.2091
3313329,70.7972,58.9846
3313330,69.7972,58.7522
3313331,67.7972,58.5547
3313332,69.7972,58.3613
3313333,69.7972,58.1311
3313334,70.7972,57.9430
3313335,67.7972,57.7558
3313336,67.7972,57.5723
3313337,67.7972,57.3882
3313338,67.7972,57.2035
3313339,68.7972,57.0737
3313340,68.7972,56.9626
3313341,67.7972,56.9036
3313342,70.7972,56.9026
3313343,68.7972,56.9242
3313344,69.7972,56.9461
3313345,69.7972,56.9615
3313346,65.7972,56.8946
3313347,65.7972,56.7609
3313348,66.7972,56.5762
3313349,66.7972,56.3776
3313350,68.7972,56.1320
3313351,69.7972,55.8629
3313352,69.7972,55.6026
3313353,68.7972,55.3964
3313354,67.7972,55.2182
3313355,65.7972,55.0922
3313356,64.7972,55.0038
3313357,65.7972,54.9346
3313358,66.7972,54.8709
3313359,66.7972,54.8006
3313360,65.7972,54.7244
3313361,65.7972,54.6413
3313362,65.7972,54.5217
3313363,65.7972,54.3862
3313364,66.7972,54.2447
3313365,65.7972,54.0579
3313366,66.7972,53.8592
3313367,68.7972,53.6603
3313368,69.7972,53.4770
3313369,69.7972,53.3409
3313370,68.7972,53.2180
3313371,69.7972,53.1054
3313372,72.7972,53.0345
3313373,70.7972,52.9616
3313374,71.7972,52.8984
3313375,71.7972,52.8420
3313376,84.7972,52.8275
3313377,87.7972,52.8261
3313378,87.7972,52.8533
3313379,88.7972,52.8897
3313380,96.7972,52.9655
3313381,97.7972,53.0729
3313382,98.7972,53.1861
3313383,99.7972,53.2981
3313384,97.7972,53.4025
3313385,97.7972,53.4785
3313386,87.7972,53.5196
3313387,84.7972,53.5397
3313388,80.7972,53.5474
3313389,69.7972,53.5271
3313390,65.7972,53.5106
3313391,52.7972,53.4993
3313392,49.7972,53.5170
3313393,50.7972,53.5619
3313394,49.7972,53.6076
3313395,50.7972,53.6498
3313396,52.7972,53.6964
3313397,55.7972,53.7543
3313398,54.7972,53.7943
3313399,64.7972,53.8094
3313400,81.7972,53.8258
3313401,105.7972,53.8924
3313402,144.7972,54.1129
3313403,167.7972,54.4277
3313404,181.7972,54.8184
3313405,178.7972,55.1371
3313406,150.7972,55.2785
3313407,131.7972,55.3313
3313408,111.7972,55.3572
3313409,88.7972,55.3591
3313410,72.7972,55.3936
3313411,55.7972,55.4467
3313412,36.7972,55.4647
3313413,16.7972,55.4480
3313414,3.7972,55.4224
3313415,8.7972,55.4032
3313416,7.7972,55.4032
3313417,19.7972,55.4072
3313418,33.7972,55.4154
3313419,39.7972,55.4118
3313420,48.7972,55.4129
3313421,47.7972,55.3908
3313422,48.7972,55.3705
3313423,49.7972,55.3541
3313424,52.7972,55.3346
3313425,51.7972,55.3176
3313426,49.7972,55.2990
3313427,49.7972,55.2888
3313428,41.7972,55.2818
3313429,39.7972,55.2812
3313430,49.7972,55.3106
3313431,51.7972,55.3549
3313432,53.7972,55.4062
3313433,52.7972,55.4559
3313434,40.7972,55.4802
3313435,36.7972,55.4989
3313436,32.7972,55.5175
3313437,22.7972,55.5259
3313438,22.7972,55.5255
3313439,22.7972,55.5235
3313440,22.7972,55.5185
3313441,19.7972,55.4979
3313442,9.7972,55.4594
3313443,8.7972,55.3997
3313444,17.7972,55.3356
3313445,19.7972,55.2704
3313446,20.7972,55.2104
3313447,21.7972,55.1512
3313448,21.7972,55.0918
3313449,24.7972,55.0327
3313450,34.7972,54.9910
3313451,40.7972,54.9858
3313452,51.7972,55.0066
3313453,65.7972,55.0687
3313454,67.7972,55.1366
3313455,80.7972,55.2395
3313456,81.7972,55.3461
3313457,86.7972,55.4715
3313458,99.7972,55.6471
3313459,130.7972,55.9501
3313460,164.7972,56.4293
3313461,181.7972,57.0089
3313462,179.7972,57.5697
3313463,152.7972,57.9629
3313464,119.7972,58.1972
3313465,86.7972,58.3138
3313466,56.7972,58.3599
3313467,49.7972,58.3994
3313468,48.7972,58.4367
3313469,52.7972,58.4752
3313470,67.7972,58.5498
3313471,71.7972,58.6356
3313472,69.7972,58.7186
3313473,49.7972,58.7595
3313474,8.7972,58.7598
3313475,-14.2028,58.7578
3313476,-29.2028,58.7669
3313477,-28.2028,58.7804
3313478,-24.2028,58.7787
3313479,-13.2028,58.7499
3313480,2.7972,58.7168
3313481,18.7972,58.7072
3313482,33.7972,58.7253
3313483,51.7972,58.7655
3313484,72.7972,58.8374
3313485,103.7972,58.9960
3313486,145.7972,59.3510
3313487,180.7972,59.8886
3313488,197.7972,60.5061
3313489,198.7972,61.1293
3313490,183.7972,61.6647
3313491,147.7972,62.0060
3313492,89.7972,62.1348
3313493,39.7972,62.1600
3313494,5.7972,62.1593
3313495,-11.2028,62.1537
3313496,-13.2028,62.1496
3313497,-22.2028,62.1573
3313498,-39.2028,62.1803
3313499,-31.2028,62.1922
3313500,0.7972,62.1885
3313501,64.7972,62.2466
3313502,119.7972,62.4674
3313503,161.7972,62.8749
3313504,161.7972,63.2799
3313505,120.7972,63.5008
3313506,68.7972,63.5722
3313507,22.7972,63.5776
3313508,-7.2028,63.5764
3313509,-23.2028,63.5836
3313510,-28.2028,63.5944
3313511,-41.2028,63.6211
3313512,-55.2028,63.6688
3313513,-42.2028,63.6960
3313514,-24.2028,63.7040
3313515,-10.2028,63.7007
3313516,1.7972,63.6939
3313517,19.7972,63.6933
3313518,37.7972,63.7096
3313519,40.7972,63.7301
3313520,49.7972,63.7641
3313521,38.7972,63.7827
3313522,32.7972,63.7981
3313523,19.7972,63.7998
3313524,7.7972,63.7958
3313525,3.7972,63.7910
3313526,1.7972,63.7861
3313527,2.7972,63.7813
3313528,-8.2028,63.7774
3313529,-7.2028,63.7732
3313530,-8.2028,63.7698
3313531,3.7972,63.7656
3313532,4.7972,63.7653
3313533,8.7972,63.7655
3313534,19.7972,63.7712
3313535,19.7972,63.7766
3313536,17.7972,63.7806
3313537,16.7972,63.7841
3313538,9.7972,63.7846
3313539,17.7972,63.7884
3313540,9.7972,63.7854
3313541,17.7972,63.7849
3313542,20.7972,63.7855
3313543,22.7972,63.7862
3313544,23.7972,63.7876
3313545,33.7972,63.7974
3313546,35.7972,63.7996
3313547,37.7972,63.8041
3313548,36.7972,63.8063
3313549,38.7972,63.8098
3313550,40.7972,63.8135
3313551,40.7972,63.8195
3313552,52.7972,63.8431
3313553,54.7972,63.8701
3313554,65.7972,63.9220
3313555,65.7972,63.9808
3313556,68.7972,64.0480
3313557,68.7972,64.1164
3313558,70.7972,64.1884
3313559,79.7972,64.2826
3313560,81.7972,64.3811
3313561,82.7972,64.4794
3313562,84.7972,64.5721
3313563,98.7972,64.6986
3313564,102.7972,64.8235
3313565,97.7972,64.9280
3313566,85.7972,65.0000
3313567,81.7972,65.0785
3313568,70.7972,65.1389
3313569,71.7972,65.2107
3313570,67.7972,65.2797
3313571,63.7972,65.3415
3313572,54.7972,65.3872
3313573,50.7972,65.4262
3313574,48.7972,65.4622
3313575,39.7972,65.4861
3313576,23.7972,65.4938
3313577,21.7972,65.4967
3313578,35.7972,65.5103
3313579,81.7972,65.6064
3313580,131.7972,65.8641
3313581,166.7972,66.2779
3313582,180.7972,66.7622
3313583,165.7972,67.1649
3313584,130.7972,67.4121
3313585,71.7972,67.4808
3313586,32.7972,67.4884
3313587,3.7972,67.4828
3313588,-11.2028,67.4782
3313589,-22.2028,67.4785
3313590,-28.2028,67.4833
3313591,-43.2028,67.5032
3313592,-47.2028,67.5271
3313593,-41.2028,67.5363
3313594,-25.2028,67.5288
3313595,-10.2028,67.5134
3313596,1.7972,67.4955
3313597,6.7972,67.4762
3313598,16.7972,67.4603
3313599,21.7972,67.4473
3313600,25.7972,67.4370
3313601,34.7972,67.4360
3313602,33.7972,67.4317
3313603,33.7972,67.4240
3313604,32.7972,67.4046
3313605,24.7972,67.3784
3313606,21.7972,67.3595
3313607,20.7972,67.3436
3313608,20.7972,67.3147
3313609,8.7972,67.2935
3313610,8.7972,67.2722
3313611,21.7972,67.2569
3313612,47.7972,67.2697
3313613,84.7972,67.3553
3313614,132.7972,67.5954
3313615,165.7972,67.9799
3313616,179.7972,68.4329
3313617,164.7972,68.8078
3313618,129.7972,69.0326
3313619,84.7972,69.1161
3313620,55.7972,69.1415
3313621,50.7972,69.1582
3313622,49.7972,69.1744
3313623,48.7972,69.1871
3313624,32.7972,69.1798
3313625,17.7972,69.1485
3313626,2.7972,69.1127
3313627,6.7972,69.0699
3313628,17.7972,68.9978
3313629,18.7972,68.8641
3313630,18.7972,68.6640
3313631,16.7972,68.4224
3313632,8.7972,68.1692
3313633,3.7972,67.9690
3313634,-25.2028,67.8375
3313635,-45.2028,67.7958
3313636,-44.2028,67.7835
3313637,-25.2028,67.7706
3313638,7.7972,67.7624
3313639,35.7972,67.7767
3313640,49.7972,67.8128
3313641,53.7972,67.8496
3313642,40.7972,67.8531
3313643,25.7972,67.8187
3313644,19.7972,67.7505
3313645,18.7972,67.6545
3313646,18.7972,67.5533
3313647,19.7972,67.4449
3313648,33.7972,67.3449
3313649,40.7972,67.2246
3313650,54.7972,67.1240
3313651,69.7972,67.0817
3313652,81.7972,67.0792
3313653,84.7972,67.1159
3313654,101.7972,67.2270
3313655,117.7972,67.4108
3313656,131.7972,67.6616
3313657,147.7972,67.9836
3313658,162.7972,68.3713
3313659,180.7972,68.8472
3313660,192.7972,69.3845
3313661,180.7972,69.8495
3313662,148.7972,70.1596
3313663,101.7972,70.2889
3313664,38.7972,70.2778
3313665,-10.2028,70.2396
3313666,-39.2028,70.2187
3313667,-57.2028,70.2271
3313668,-78.2028,70.2938
3313669,-94.2028,70.4028
3313670,-89.2028,70.5070
3313671,-48.2028,70.5354
3313672,4.7972,70.5354
3313673,48.7972,70.5685
3313674,68.7972,70.6295
3313675,66.7972,70.6702
3313676,34.7972,70.6260
3313677,4.7972,70.5554
3313678,-14.2028,70.4610
3313679,-26.2028,70.3976
3313680,-28.2028,70.3677
3313681,-40.2028,70.3725
3313682,-32.2028,70.3799
3313683,-29.2028,70.3852
3313684,-15.2028,70.3829
3313685,2.7972,70.3775
3313686,7.7972,70.3738
3313687,8.7972,70.3704
3313688,17.7972,70.3688
3313689,17.7972,70.3571
3313690,17.7972,70.3402
3313691,17.7972,70.3210
3313692,35.7972,70.3178
3313693,54.7972,70.3402
3313694,81.7972,70.4200
3313695,95.7972,70.5415
3313696,99.7972,70.6654
3313697,102.7972,70.7739
3313698,100.7972,70.7823
3313699,95.7972,70.6665
3313700,88.7972,70.3979
3313701,98.7972,70.0610
3313702,100.7972,69.7491
3313703,85.7972,69.5326
3313704,55.7972,69.4193
3313705,17.7972,69.3615
3313706,-13.2028,69.3475
3313707,-30.2028,69.3596
3313708,-39.2028,69.3802
3313709,-28.2028,69.3883
3313710,-14.2028,69.3821
3313711,-12.2028,69.3736
3313712,-9.2028,69.3649
3313713,5.7972,69.3621
3313714,23.7972,69.3687
3313715,35.7972,69.3871
3313716,38.7972,69.4085
3313717,40.7972,69.4321
3313718,50.7972,69.4652
3313719,51.7972,69.4982
3313720,50.7972,69.5278
3313721,48.7972,69.5546
3313722,51.7972,69.5857
3313723,56.7972,69.6232
3313724,65.7972,69.6766
3313725,57.7972,69.7170
3313726,52.7972,69.7489
3313727,48.7972,69.7742
3313728,38.7972,69.7877
3313729,39.7972,69.7940
3313730,41.7972,69.8006
3313731,39.7972,69.8050
3313732,35.7972,69.8029
3313733,32.7972,69.7967
3313734,23.7972,69.7833
3313735,19.7972,69.7533
3313736,3.7972,69.7194
3313737,-10.2028,69.6794
3313738,-12.2028,69.6400
3313739,-12.2028,69.5974
3313740,-10.2028,69.5328
3313741,-8.2028,69.4398
3313742,-8.2028,69.3372
3313743,1.7972,69.2285
3313744,1.7972,69.0930
3313745,-14.2028,68.9574
3313746,-15.2028,68.8191
3313747,1.7972,68.6713
3313748,34.7972,68.5524
3313749,65.7972,68.5082
3313750,72.7972,68.5060
3313751,71.7972,68.5390
3313752,49.7972,68.5544
3313753,18.7972,68.5398
3313754,3.7972,68.5233
3313755,6.7972,68.5157
3313756,18.7972,68.5032
3313757,23.7972,68.4895
3313758,35.7972,68.4851
3313759,40.7972,68.4862
3313760,50.7972,68.4984
3313761,52.7972,68.5029
3313762,41.7972,68.4936
3313763,35.7972,68.4804
3313764,17.7972,68.4652
3313765,2.7972,68.4456
3313766,-6.2028,68.4263
3313767,-22.2028,68.4169
3313768,-30.2028,68.4135
3313769,-41.2028,68.4206
3313770,-26.2028,68.4129
3313771,24.7972,68.4032
3313772,85.7972,68.4876
3313773,119.7972,68.6726
3313774,144.7972,68.9413
3313775,129.7972,69.1449
3313776,96.7972,69.2385
3313777,65.7972,69.2608
3313778,48.7972,69.2518
3313779,36.7972,69.2264
3313780,17.7972,69.1876
3313781,-7.2028,69.1480
3313782,-8.2028,69.1056
3313783,1.7972,69.0410
3313784,18.7972,68.9515
3313785,34.7972,68.8572
3313786,40.7972,68.7248
3313787,39.7972,68.5061
3313788,37.7972,68.2652
3313789,21.7972,68.0288
3313790,15.7972,67.8418
3313791,3.7972,67.7360
3313792,2.7972,67.6721
3313793,3.7972,67.6342
3313794,16.7972,67.6150
3313795,33.7972,67.6118
3313796,33.7972,67.6223
3313797,33.7972,67.6383
3313798,37.7972,67.6589
3313799,38.7972,67.6765
3313800,38.7972,67.6917
3313801,37.7972,67.6959
3313802,38.7972,67.6993
3313803,37.7972,67.6970
3313804,36.7972,67.6912
3313805,37.7972,67.6865
3313806,24.7972,67.6604
3313807,4.7972,67.6255
3313808,-8.2028,67.5913
3313809,2.7972,67.5668
3313810,19.7972,67.5503
3313811,33.7972,67.5413
3313812,39.7972,67.5401
3313813,65.7972,67.5796
3313814,83.7972,67.6437
3313815,102.7972,67.7587
3313816,130.7972,67.9665
3313817,153.7972,68.2713
3313818,169.7972,68.6485
3313819,169.7972,69.0253
3313820,147.7972,69.2978
3313821,97.7972,69.3939
3313822,35.7972,69.3691
3313823,-8.2028,69.3219
3313824,-30.2028,69.2726
3313825,-47.2028,69.2344
3313826,-73.2028,69.2455
3313827,-90.2028,69.2946
3313828,-89.2028,69.3391
3313829,-74.2028,69.3462
3313830,-55.2028,69.3199
3313831,-40.2028,69.2769
3313832,-27.2028,69.2172
3313833,-13.2028,69.1493
3313834,1.7972,69.0769
3313835,6.7972,69.0110
3313836,8.7972,68.9454
3313837,9.7972,68.8801
3313838,22.7972,68.8209
3313839,38.7972,68.7740
3313840,55.7972,68.7505
3313841,69.7972,68.7545
3313842,69.7972,68.7524
3313843,56.7972,68.7305
3313844,34.7972,68.6772
3313845,8.7972,68.6074
3313846,2.7972,68.5443
3313847,20.7972,68.4875
3313848,49.7972,68.4585
3313849,66.7972,68.4585
3313850,87.7972,68.5020
3313851,114.7972,68.6231
3313852,129.7972,68.7974
3313853,129.7972,68.9733
3313854,113.7972,69.0943
3313855,84.7972,69.1357
3313856,55.7972,69.1200
3313857,37.7972,69.0780
3313858,20.7972,69.0197
3313859,-16.2028,68.9588
3313860,-45.2028,68.9256
3313861,-56.2028,68.9086
3313862,-55.2028,68.8900
3313863,-41.2028,68.8518
3313864,-25.2028,68.7962
3313865,-14.2028,68.7362
3313866,-10.2028,68.6728
3313867,-9.2028,68.6050
3313868,-8.2028,68.5350
3313869,1.7972,68.4639
3313870,7.7972,68.3956
3313871,18.7972,68.3295
3313872,18.7972,68.2571
3313873,19.7972,68.1894
3313874,9.7972,68.1152
3313875,6.7972,68.0401
3313876,8.7972,67.9355
3313877,16.7972,67.8261
3313878,17.7972,67.7170
3313879,17.7972,67.6052
3313880,8.7972,67.4676
3313881,4.7972,67.3260
3313882,-7.2028,67.1817
3313883,-12.2028,67.0355
3313884,-14.2028,66.8957
3313885,-14.2028,66.7556
3313886,-11.2028,66.6419
3313887,-7.2028,66.5347
3313888,0.7972,66.4365
3313889,6.7972,66.3638
3313890,19.7972,66.3044
3313891,24.7972,66.2717
3313892,33.7972,66.2515
3313893,34.7972,66.2308
3313894,34.7972,66.2117
3313895,32.7972,66.1889
3313896,24.7972,66.1561
3313897,24.7972,66.1183
3313898,34.7972,66.0912
3313899,33.7972,66.0449
3313900,37.7972,65.9652
3313901,38.7972,65.8182
3313902,36.7972,65.5195
3313903,23.7972,65.0971
3313904,19.7972,64.5935
3313905,17.7972,64.1016
3313906,16.7972,63.7503
3313907,8.7972,63.4784
3313908,17.7972,63.2862
3313909,9.7972,63.1630
3313910,5.7972,63.0796
3313911,0.7972,63.0302
3313912,7.7972,63.0097
3313913,35.7972,63.0256
3313914,67.7972,63.0982
3313915,83.7972,63.2082
3313916,83.7972,63.3182
3313917,69.7972,63.3889
3313918,38.7972,63.3947
3313919,16.7972,63.3741
3313920,-8.2028,63.3376
3313921,-9.2028,63.3029
3313922,-14.2028,63.2684
3313923,-25.2028,63.2393
3313924,-15.2028,63.1988
3313925,-12.2028,63.1587
3313926,0.7972,63.1195
3313927,8.7972,63.0814
3313928,33.7972,63.0718
3313929,50.7972,63.0876
3313930,68.7972,63.1233
3313931,71.7972,63.1625
3313932,70.7972,63.1960
3313933,64.7972,63.2183
3313934,50.7972,63.2328
3313935,49.7972,63.2506
3313936,50.7972,63.2744
3313937,55.7972,63.3154
3313938,69.7972,63.3840
3313939,79.7972,63.4762
3313940,80.7972,63.5708
3313941,82.7972,63.6724
3313942,81.7972,63.7759
3313943,72.7972,63.8577
3313944,68.7972,63.9269
3313945,49.7972,63.9595
3313946,35.7972,63.9728
3313947,18.7972,63.9709
3313948,4.7972,63.9638
3313949,1.7972,63.9542
3313950,-16.2028,63.9394
3313951,-28.2028,63.9258
3313952,-43.2028,63.9131
3313953,-46.2028,63.8787
3313954,-41.2028,63.8333
3313955,-38.2028,63.7539
3313956,-27.2028,63.6604
3313957,-15.2028,63.5456
3313958,-9.2028,63.3900
3313959,18.7972,63.1252
3313960,40.7972,62.7200
3313961,65.7972,62.2604
3313962,69.7972,61.8179
3313963,72.7972,61.5252
3313964,68.7972,61.3687
3313965,65.7972,61.3165
3313966,66.7972,61.3366
3313967,69.7972,61.3756
3313968,65.7972,61.4073
3313969,49.7972,61.4023
3313970,37.7972,61.3507
3313971,35.7972,61.2875
3313972,34.7972,61.2278
3313973,33.7972,61.2059
3313974,35.7972,61.2256
3313975,22.7972,61.2308
3313976,-7.2028,61.2177
3313977,-26.2028,61.2159
3313978,-41.2028,61.2341
3313979,-58.2028,61.2865
3313980,-60.2028,61.3455
3313981,-62.2028,61.4028
3313982,-62.2028,61.4472
3313983,-61.2028,61.4645
3313984,-56.2028,61.4297
3313985,-43.2028,61.2845
3313986,-31.2028,60.9526
3313987,-26.2028,60.4253
3313988,-26.2028,59.7858
3313989,-23.2028,59.1302
3313990,-14.2028,58.5596
3313991,-14.2028,58.1888
3313992,-12.2028,58.0526
3313993,-8.2028,58.0265
3313994,0.7972,58.0259
3313995,1.7972,58.0238
3313996,4.7972,58.0212
3313997,5.7972,58.0133
3313998,6.7972,57.9876
3313999,3.7972,57.9711
3314000,2.7972,57.9712
3314001,8.7972,57.9001
3314002,38.7972,57.6778
3314003,68.7972,57.3047
3314004,86.7972,56.9785
3314005,96.7972,56.8867
3314006,70.7972,56.8916
3314007,34.7972,56.9038
3314008,2.7972,56.9030
3314009,-15.2028,56.8976
3314010,-29.2028,56.8986
3314011,-42.2028,56.9001
3314012,-47.2028,56.8857
3314013,-46.2028,56.8919
3314014,-43.2028,56.9144
3314015,-28.2028,56.9265
3314016,-14.2028,56.9300
3314017,-10.2028,56.9250
3314018,-8.2028,56.9011
3314019,-9.2028,56.8733
3314020,-10.2028,56.8315
3314021,-9.2028,56.8065
3314022,4.7972,56.7880
3314023,24.7972,56.7919
3314024,54.7972,56.8437
3314025,87.7972,56.9789
3314026,118.7972,57.2260
3314027,147.7972,57.6063
3314028,178.7972,58.1574
3314029,195.7972,58.8120
3314030,192.7972,59.4396
3314031,181.7972,59.9928
3314032,169.7972,60.4711
3314033,152.7972,60.8546
3314034,131.7972,61.1330
3314035,80.7972,61.2333
3314036,34.7972,61.2479
3314037,0.7972,61.2433
3314038,-25.2028,61.2521
3314039,-43.2028,61.2774
3314040,-54.2028,61.3238
3314041,-87.2028,61.4425
3314042,-121.2028,61.6741
3314043,-154.2028,62.0501
3314044,-160.2028,62.4533
3314045,-152.2028,62.8049
3314046,-137.2028,63.0836
3314047,-122.2028,63.2973
3314048,-109.2028,63.4641
3314049,-93.2028,63.5772
3314050,-87.2028,63.6705
3314051,-76.2028,63.7356
3314052,-73.2028,63.7759
3314053,-61.2028,63.7876
3314054,-58.2028,63.7728
3314055,-56.2028,63.7544
3314056,-56.2028,63.7297
3314057,-56.2028,63.7050
3314058,-46.2028,63.6598
3314059,-46.2028,63.5933
3314060,-46.2028,63.5216
3314061,-46.2028,63.4473
3314062,-45.2028,63.3661
3314063,-42.2028,63.2400
3314064,-43.2028,63.1023
3314065,-41.2028,62.9775
3314066,-38.2028,62.8837
3314067,-30.2028,62.7918
3314068,-29.2028,62.7255
3314069,-27.2028,62.6551
3314070,-27.2028,62.5935
3314071,-25.2028,62.5386
3314072,-15.2028,62.4943
3314073,-14.2028,62.4562
3314074,-14.2028,62.4213
3314075,-16.2028,62.4001
3314076,-14.2028,62.3943
3314077,-14.2028,62.3899
3314078,-14.2028,62.3726
3314079,-22.2028,62.2731
3314080,-23.2028,62.0022
3314081,-14.2028,61.5552
3314082,-15.2028,61.0256
3314083,-14.2028,60.5768
3314084,-14.2028,60.2971
3314085,-13.2028,60.2144
3314086,-14.2028,60.1999
3314087,-12.2028,60.2022
3314088,-10.2028,60.2018
3314089,-11.2028,60.1957
3314090,-9.2028,60.1839
3314091,2.7972,60.1530
3314092,5.7972,60.1165
3314093,5.7972,60.0888
3314094,17.7972,60.0835
3314095,19.7972,60.0883
3314096,24.7972,60.0985
3314097,38.7972,60.1228
3314098,38.7972,60.1431
3314099,24.7972,60.1454
3314100,3.7972,60.1346
3314101,-15.2028,60.1183
3314102,-30.2028,60.1145
3314103,-46.2028,60.1310
3314104,-57.2028,60.1675
3314105,-72.2028,60.2439
3314106,-78.2028,60.3374
3314107,-86.2028,60.4533
3314108,-75.2028,60.5396
3314109,-64.2028,60.6064
3314110,-62.2028,60.6689
3314111,-59.2028,60.7189
3314112,-55.2028,60.7314
3314113,-46.2028,60.6481
3314114,-44.2028,60.3890
3314115,-41.2028,59.9604
3314116,-40.2028,59.4460
3314117,-39.2028,59.0134
3314118,-39.2028,58.7534
3314119,-41.2028,58.6599
3314120,-39.2028,58.6330
3314121,-40.2028,58.6165
3314122,-39.2028,58.6005
3314123,-40.2028,58.5874
3314124,-39.2028,58.5953
3314125,-41.2028,58.6188
3314126,-41.2028,58.6477
3314127,-43.2028,58.6787
3314128,-43.2028,58.7051
3314129,-41.2028,58.7280
3314130,-40.2028,58.7495
3314131,-39.2028,58.7708
3314132,-40.2028,58.7970
3314133,-38.2028,58.8216
3314134,-39.2028,58.8369
3314135,-32.2028,58.8198
3314136,-38.2028,58.8114
3314137,-30.2028,58.8161
3314138,-30.2028,58.8306
3314139,-28.2028,58.8223
3314140,-31.2028,58.7967
3314141,-31.2028,58.7640
3314142,-31.2028,58.7523
3314143,-42.2028,58.7713
3314144,-42.2028,58.7949
3314145,-41.2028,58.8178
3314146,-42.2028,58.8420
3314147,-40.2028,58.8628
3314148,-40.2028,58.8709
3314149,-39.2028,58.8687
3314150,-29.2028,58.8322
3314151,-25.2028,58.7601
3314152,-11.2028,58.6483
3314153,0.7972,58.5256
3314154,5.7972,58.3488
3314155,17.7972,58.1160
3314156,22.7972,57.8253
3314157,33.7972,57.4662
3314158,34.7972,57.0244
3314159,35.7972,56.4709
3314160,37.7972,55.8344
3314161,32.7972,55.2653
3314162,19.7972,54.8704
3314163,7.7972,54.6823
3314164,-10.2028,54.6567
3314165,-38.2028,54.6815
3314166,-63.2028,54.7264
3314167,-90.2028,54.8152
3314168,-103.2028,54.8979
3314169,-104.2028,54.9340
3314170,-92.2028,54.9439
3314171,-77.2028,55.0101
3314172,-63.2028,55.0822
3314173,-57.2028,55.0984
3314174,-42.2028,55.0448
3314175,-27.2028,54.9771
3314176,-26.2028,54.9676
3314177,-27.2028,54.9806
3314178,-40.2028,55.0064
3314179,-46.2028,55.0327
3314180,-59.2028,55.0819
3314181,-61.2028,55.1205
3314182,-76.2028,55.2070
3314183,-88.2028,55.3323
3314184,-90.2028,55.4750
3314185,-89.2028,55.6181
3314186,-78.2028,55.7269
3314187,-45.2028,55.7622
3314188,-29.2028,55.7718
3314189,-29.2028,55.7814
3314190,-40.2028,55.8047
3314191,-55.2028,55.8536
3314192,-62.2028,55.8999
3314193,-72.2028,55.9394
3314194,-71.2028,55.9105
3314195,-62.2028,55.8154
3314196,-73.2028,55.7329
3314197,-73.2028,55.6394
3314198,-70.2028,55.5453
3314199,-60.2028,55.4452
3314200,-56.2028,55.3599
3314201,-46.2028,55.2220
3314202,-43.2028,55.0716
3314203,-41.2028,54.9687
3314204,-39.2028,54.9400
3314205,-38.2028,54.9608
3314206,-38.2028,54.9842
3314207,-40.2028,54.9970
3314208,-40.2028,54.9984
3314209,-40.2028,55.0133
3314210,-40.2028,55.0391
3314211,-41.2028,55.0672
3314212,-32.2028,55.0845
3314213,-27.2028,55.0973
3314214,-24.2028,55.0977
3314215,-25.2028,55.0859
3314216,-25.2028,55.0701
3314217,-27.2028,55.0533
3314218,-29.2028,55.0219
3314219,-30.2028,54.9898
3314220,-30.2028,54.9594
3314221,-29.2028,54.9316
3314222,-31.2028,54.9005
3314223,-41.2028,54.8726
3314224,-43.2028,54.8277
3314225,-45.2028,54.8041
3314226,-56.2028,54.8108
3314227,-62.2028,54.8380
3314228,-62.2028,54.8811
3314229,-60.2028,54.9182
3314230,-46.2028,54.9253
3314231,-41.2028,54.9274
3314232,-39.2028,54.9320
3314233,-30.2028,54.9290
3314234,-30.2028,54.9353
3314235,-28.2028,54.9427
3314236,-28.2028,54.9569
3314237,-29.2028,54.9705
3314238,-29.2028,54.9833
3314239,-30.2028,54.9972
3314240,-26.2028,55.0078
3314241,-16.2028,55.0113
3314242,-14.2028,55.0138
3314243,-13.2028,55.0169
3314244,-10.2028,55.0187
3314245,-8.2028,55.0163
3314246,-7.2028,55.0130
3314247,-7.2028,55.0139
3314248,-8.2028,54.9931
3314249,-9.2028,54.9159
3314250,-10.2028,54.8212
3314251,-13.2028,54.7303
3314252,-15.2028,54.6892
3314253,-12.2028,54.6854
3314254,0.7972,54.6852
3314255,5.7972,54.6849
3314256,7.7972,54.6796
3314257,2.7972,54.6694
3314258,-22.2028,54.6550
3314259,-40.2028,54.6541
3314260,-55.2028,54.6626
3314261,-61.2028,54.6802
3314262,-75.2028,54.7516
3314263,-78.2028,54.8398
3314264,-93.2028,54.9922
3314265,-106.2028,55.1968
3314266,-105.2028,55.3963
3314267,-94.2028,55.5473
3314268,-89.2028,55.6740
3314269,-87.2028,55.7800
3314270,-78.2028,55.8773
3314271,-76.2028,55.9701
3314272,-74.2028,55.9370
3314273,-71.2028,55.7708
3314274,-62.2028,55.4634
3314275,-62.2028,55.2289
3314276,-73.2028,55.1562
3314277,-61.2028,55.1456
3314278,-56.2028,55.1597
3314279,-58.2028,55.1966
3314280,-56.2028,55.2480
3314281,-54.2028,55.3003
3314282,-47.2028,55.3393
3314283,-46.2028,55.3778
3314284,-47.2028,55.4117
3314285,-45.2028,55.4267
3314286,-43.2028,55.4303
3314287,-43.2028,55.4354
3314288,-40.2028,55.4388
3314289,-40.2028,55.4594
3314290,-39.2028,55.4826
3314291,-40.2028,55.5115
3314292,-42.2028,55.5434
3314293,-41.2028,55.5737
3314294,-41.2028,55.5992
3314295,-40.2028,55.6077
3314296,-41.2028,55.6177
3314297,-31.2028,55.6146
3314298,-29.2028,55.6043
3314299,-24.2028,55.5878
3314300,-8.2028,55.5619
3314301,1.7972,55.5362
3314302,4.7972,55.5095
3314303,5.7972,55.4844
3314304,5.7972,55.4606
3314305,6.7972,55.4357
3314306,7.7972,55.4257
3314307,17.7972,55.4310
3314308,21.7972,55.4383
3314309,37.7972,55.4639
3314310,66.7972,55.5373
3314311,100.7972,55.6994
3314312,134.7972,55.9964
3314313,147.7972,56.3083
3314314,133.7972,56.5012
3314315,97.7972,56.4834
3314316,49.7972,56.2239
3314317,4.7972,55.8020
3314318,-11.2028,55.2852
3314319,-28.2028,54.7757
3314320,-45.2028,54.4130
3314321,-61.2028,54.3060
3314322,-78.2028,54.3949
3314323,-77.2028,54.5032
3314324,-62.2028,54.5574
3314325,-48.2028,54.5591
3314326,-47.2028,54.5017
3314327,-58.2028,54.4145
3314328,-72.2028,54.3641
3314329,-77.2028,54.3724
3314330,-79.2028,54.4317
3314331,-78.2028,54.5143
3314332,-79.2028,54.6157
3314333,-89.2028,54.7581
3314334,-93.2028,54.9164
3314335,-91.2028,55.0668
3314336,-88.2028,55.2065
3314337,-77.2028,55.3126
3314338,-74.2028,55.4027
3314339,-75.2028,55.4776
3314340,-76.2028,55.5261
3314341,-62.2028,55.5080
3314342,-47.2028,55.4604
3314343,-30.2028,55.4187
3314344,-28.2028,55.4112
3314345,-28.2028,55.4241
3314346,-24.2028,55.4346
3314347,-7.2028,55.4277
3314348,19.7972,55.3900
3314349,40.7972,55.3395
3314350,51.7972,55.2486
3314351,51.7972,55.0583
3314352,39.7972,54.7804
3314353,17.7972,54.4778
3314354,-13.2028,54.2428
3314355,-38.2028,54.1370
3314356,-56.2028,54.1378
3314357,-63.2028,54.1852
3314358,-75.2028,54.2815
3314359,-74.2028,54.3780
3314360,-61.2028,54.4093
3314361,-31.2028,54.3692
3314362,-8.2028,54.3143
3314363,18.7972,54.2896
3314364,20.7972,54.2858
3314365,6.7972,54.2830
3314366,-24.2028,54.2918
3314367,-45.2028,54.3279
3314368,-60.2028,54.3933
3314369,-63.2028,54.4667
3314370,-60.2028,54.5321
3314371,-58.2028,54.5877
3314372,-46.2028,54.6203
3314373,-40.2028,54.6427
3314374,-24.2028,54.6517
3314375,-8.2028,54.6521
3314376,2.7972,54.6508
3314377,3.7972,54.6459
3314378,1.7972,54.6401
3314379,-12.2028,54.6371
3314380,-23.2028,54.6455
3314381,-29.2028,54.6607
3314382,-39.2028,54.6879
3314383,-43.2028,54.7192
3314384,-44.2028,54.7513
3314385,-56.2028,54.8052
3314386,-56.2028,54.8606
3314387,-42.2028,54.8921
3314388,-23.2028,54.9019
3314389,20.7972,54.9089
3314390,52.7972,54.9525
3314391,68.7972,55.0274
3314392,68.7972,55.0926
3314393,50.7972,55.1175
3314394,21.7972,55.1041
3314395,0.7972,55.0846
3314396,-29.2028,55.0889
3314397,-45.2028,55.1149
3314398,-55.2028,55.1482
3314399,-72.2028,55.2219
3314400,-79.2028,55.3096
3314401,-90.2028,55.4294
3314402,-89.2028,55.5484
3314403,-74.2028,55.6372
3314404,-58.2028,55.6910
3314405,-43.2028,55.7188
3314406,-24.2028,55.7243
3314407,4.7972,55.7233
3314408,24.7972,55.7287
3314409,39.7972,55.7554
3314410,49.7972,55.7992
3314411,39.7972,55.8276
3314412,32.7972,55.8458
3314413,18.7972,55.8291
3314414,0.7972,55.7468
3314415,-12.2028,55.6233
3314416,-26.2028,55.5093
3314417,-28.2028,55.4358
3314418,-28.2028,55.4230
3314419,-28.2028,55.4323
3314420,-38.2028,55.4574
3314421,-42.2028,55.4880
3314422,-39.2028,55.5120
3314423,-31.2028,55.5181
3314424,-27.2028,55.5273
3314425,-15.2028,55.5288
3314426,-13.2028,55.5319
3314427,-14.2028,55.5341
3314428,-22.2028,55.5225
3314429,-25.2028,55.4874
3314430,-27.2028,55.4154
3314431,-30.2028,55.3388
3314432,-38.2028,55.2745
3314433,-40.2028,55.2278
3314434,-41.2028,55.2118
3314435,-44.2028,55.2023
3314436,-46.2028,55.1942
3314437,-55.2028,55.1930
3314438,-45.2028,55.1418
3314439,-45.2028,55.0633
3314440,-42.2028,54.9770
3314441,-31.2028,54.8699
3314442,-28.2028,54.7624
3314443,-23.2028,54.6754
3314444,-13.2028,54.5919
3314445,-11.2028,54.5488
3314446,-9.2028,54.5268
3314447,-8.2028,54.5216
3314448,3.7972,54.5214
3314449,5.7972,54.5220
3314450,16.7972,54.5223
3314451,18.7972,54.5142
3314452,17.7972,54.4858
3314453,18.7972,54.4531
3314454,17.7972,54.4277
3314455,5.7972,54.4015
3314456,1.7972,54.3880
3314457,-10.2028,54.3856
3314458,-13.2028,54.3873
3314459,-24.2028,54.3916
3314460,-22.2028,54.3700
3314461,-22.2028,54.2994
3314462,-28.2028,54.2243
3314463,-40.2028,54.1563
3314464,-44.2028,54.1050
3314465,-42.2028,54.0579
3314466,-27.2028,53.9890
3314467,-22.2028,53.9078
3314468,-14.2028,53.8312
3314469,-11.2028,53.7874
3314470,4.7972,53.7613
3314471,23.7972,53.7480
3314472,39.7972,53.7549
3314473,50.7972,53.7817
3314474,48.7972,53.8021
3314475,32.7972,53.8125
3314476,6.7972,53.8124
3314477,2.7972,53.7997
3314478,2.7972,53.7683
3314479,3.7972,53.7055
3314480,3.7972,53.6383
3314481,-11.2028,53.5684
3314482,-14.2028,53.4999
3314483,-13.2028,53.4331
3314484,-8.2028,53.3753
3314485,-10.2028,53.3422
3314486,-14.2028,53.3278
3314487,-24.2028,53.3259
3314488,-16.2028,53.3179
3314489,-25.2028,53.3197
3314490,-27.2028,53.3298
3314491,-28.2028,53.3409
3314492,-27.2028,53.3520
3314493,-10.2028,53.3527
3314494,19.7972,53.3601
3314495,48.7972,53.4046
3314496,65.7972,53.4852
3314497,69.7972,53.5756
3314498,50.7972,53.6228
3314499,19.7972,53.6299
3314500,-9.2028,53.6313
3314501,-23.2028,53.6399
3314502,-29.2028,53.6277
3314503,-41.2028,53.5711
3314504,-62.2028,53.5027
3314505,-88.2028,53.4729
3314506,-95.2028,53.5486
3314507,-93.2028,53.6881
3314508,-76.2028,53.7960
3314509,-60.2028,53.8590
3314510,-58.2028,53.9061
3314511,-54.2028,53.9275
3314512,-46.2028,53.9258
3314513,-44.2028,53.9224
3314514,-43.2028,53.9224
3314515,-39.2028,53.9362
3314516,-29.2028,53.9482
3314517,-28.2028,53.9611
3314518,-28.2028,53.9745
3314519,-28.2028,53.9877
3314520,-29.2028,54.0016
3314521,-27.2028,54.0137
3314522,-24.2028,54.0241
3314523,-13.2028,54.0160
3314524,-8.2028,53.9616
3314525,2.7972,53.8187
3314526,3.7972,53.5561
3314527,4.7972,53.1471
3314528,3.7972,52.5424
3314529,1.7972,51.8077
3314530,-7.2028,51.0862
3314531,-10.2028,50.4372
3314532,-11.2028,49.8648
3314533,-11.2028,49.3969
3314534,-14.2028,49.0481
3314535,-26.2028,48.9289
3314536,-28.2028,48.9204
3314537,-29.2028,48.9378
3314538,-29.2028,48.9423
3314539,-31.2028,48.9240
3314540,-27.2028,48.8791
3314541,-27.2028,48.7384
3314542,-30.2028,48.4549
3314543,-28.2028,47.9782
3314544,-16.2028,47.4458
3314545,-10.2028,46.9573
3314546,17.7972,46.5614
3314547,31.7972,46.2615
3314548,34.7972,46.0293
3314549,24.7972,45.8536
3314550,9.7972,45.6895
3314551,2.7972,45.5624
3314552,-9.2028,45.4465
3314553,-11.2028,45.3668
3314554,-10.2028,45.2944
3314555,-9.2028,45.2265
3314556,-12.2028,45.1599
3314557,-14.2028,45.0943
3314558,-15.2028,45.0521
3314559,-15.2028,45.0098
3314560,-13.2028,44.9662
3314561,-13.2028,44.9226
3314562,-14.2028,44.8816
3314563,-14.2028,44.8464
3314564,-10.2028,44.8071
3314565,-14.2028,44.7737
3314566,-15.2028,44.7463
3314567,-7.2028,44.7270
3314568,18.7972,44.7159
3314569,50.7972,44.7570
3314570,68.7972,44.8461
3314571,81.7972,44.9810
3314572,67.7972,45.0779
3314573,38.7972,45.1068
3314574,16.7972,45.1086
3314575,-9.2028,45.1046
3314576,-23.2028,45.1121
3314577,-28.2028,45.1253
3314578,-44.2028,45.1641
3314579,-59.2028,45.2307
3314580,-62.2028,45.3043
3314581,-57.2028,45.3720
3314582,-45.2028,45.4119
3314583,-39.2028,45.4413
3314584,-39.2028,45.4707
3314585,-43.2028,45.5079
3314586,-41.2028,45.5408
3314587,-44.2028,45.5804
3314588,-46.2028,45.6249
3314589,-45.2028,45.6669
3314590,-39.2028,45.6987
3314591,-28.2028,45.7159
3314592,-24.2028,45.7280
3314593,-14.2028,45.7317
3314594,-14.2028,45.7292
3314595,-24.2028,45.7334
3314596,-26.2028,45.7350
3314597,-29.2028,45.7207
3314598,-29.2028,45.7065
3314599,-31.2028,45.7143
3314600,-31.2028,45.7353
3314601,-41.2028,45.7673
3314602,-26.2028,45.7624
3314603,-8.2028,45.7172
3314604,19.7972,45.6542
3314605,49.7972,45.5942
3314606,81.7972,45.6069
3314607,103.7972,45.6801
3314608,119.7972,45.8701
3314609,128.7972,46.1410
3314610,105.7972,46.2995
3314611,84.7972,46.3790
3314612,72.7972,46.4276
3314613,71.7972,46.4926
3314614,71.7972,46.5614
3314615,68.7972,46.6265
3314616,50.7972,46.6472
3314617,19.7972,46.6226
3314618,-9.2028,46.5915
3314619,-26.2028,46.5698
3314620,-28.2028,46.5539
3314621,-29.2028,46.5374
3314622,-30.2028,46.5240
3314623,-43.2028,46.5294
3314624,-62.2028,46.5795
3314625,-76.2028,46.6676
3314626,-87.2028,46.7940
3314627,-88.2028,46.9202
3314628,-60.2028,46.9577
3314629,-14.2028,46.9258
3314630,33.7972,46.9157
3314631,54.7972,46.9469
3314632,56.7972,46.9812
3314633,33.7972,46.9745
3314634,0.7972,46.9418
3314635,-29.2028,46.9378
3314636,-56.2028,46.9740
3314637,-62.2028,47.0369
3314638,-75.2028,47.1377
3314639,-93.2028,47.3048
3314640,-109.2028,47.5357
3314641,-110.2028,47.7701
3314642,-104.2028,47.9766
3314643,-87.2028,48.0978
3314644,-74.2028,48.1752
3314645,-60.2028,48.2152
3314646,-56.2028,48.2438
3314647,-46.2028,48.2545
3314648,-42.2028,48.2579
3314649,-38.2028,48.2563
3314650,-29.2028,48.2563
3314651,-24.2028,48.2553
3314652,-15.2028,48.2575
3314653,-10.2028,48.2596
3314654,-8.2028,48.2603
3314655,-9.2028,48.2555
3314656,-10.2028,48.2469
3314657,-16.2028,48.2287
3314658,-26.2028,48.2178
3314659,-26.2028,48.2055
3314660,-13.2028,48.1794
3314661,4.7972,48.1576
3314662,18.7972,48.1568
3314663,21.7972,48.1654
3314664,19.7972,48.1714
3314665,7.7972,48.1423
3314666,6.7972,48.0602
3314667,6.7972,47.8916
3314668,5.7972,47.6694
3314669,4.7972,47.4415
3314670,1.7972,47.2621
3314671,-11.2028,47.1385
3314672,-14.2028,47.0579
3314673,-15.2028,46.9933
3314674,-14.2028,46.9596
3314675,-13.2028,46.9476
3314676,1.7972,46.9330
3314677,23.7972,46.9293
3314678,64.7972,46.9843
3314679,88.7972,47.1066
3314680,112.7972,47.3018
3314681,112.7972,47.4913
3314682,100.7972,47.5828
3314683,99.7972,47.6286
3314684,98.7972,47.6627
3314685,98.7972,47.7005
3314686,99.7972,47.7810
3314687,96.7972,47.9341
3314688,70.7972,48.0208
3314689,34.7972,48.0283
3314690,9.7972,47.9966
3314691,16.7972,47.9390
3314692,34.7972,47.8835
3314693,41.7972,47.8110
3314694,56.7972,47.7725
3314695,56.7972,47.7590
3314696,37.7972,47.6766
3314697,5.7972,47.5648
3314698,-23.2028,47.4724
3314699,-39.2028,47.4284
3314700,-45.2028,47.4049
3314701,-58.2028,47.4313
3314702,-74.2028,47.5080
3314703,-88.2028,47.6359
3314704,-93.2028,47.7857
3314705,-106.2028,47.9908
3314706,-108.2028,48.2038
3314707,-105.2028,48.3995
3314708,-74.2028,48.4798
3314709,-40.2028,48.4798
3314710,-12.2028,48.4495
3314711,-7.2028,48.4156
3314712,-8.2028,48.3955
3314713,-24.2028,48.3923
3314714,-30.2028,48.3991
3314715,-39.2028,48.4177
3314716,-28.2028,48.4210
3314717,-25.2028,48.4189
3314718,-27.2028,48.4165
3314719,-29.2028,48.4153
3314720,-30.2028,48.4153
3314721,-28.2028,48.4141
3314722,-14.2028,48.3982
3314723,3.7972,48.3634
3314724,33.7972,48.3484
3314725,39.7972,48.3389
3314726,53.7972,48.3334
3314727,69.7972,48.3542
3314728,71.7972,48.3807
3314729,70.7972,48.4094
3314730,66.7972,48.4575
3314731,52.7972,48.4799
3314732,34.7972,48.4732
3314733,20.7972,48.4633
3314734,2.7972,48.4447
3314735,-23.2028,48.4394
3314736,-44.2028,48.4633
3314737,-72.2028,48.5532
3314738,-78.2028,48.6614
3314739,-61.2028,48.7196
3314740,-26.2028,48.7196
3314741,2.7972,48.7144
3314742,17.7972,48.7168
3314743,20.7972,48.7221
3314744,22.7972,48.7306
3314745,22.7972,48.7399
3314746,23.7972,48.7504
3314747,20.7972,48.7582
3314748,18.7972,48.7641
3314749,7.7972,48.7636
3314750,3.7972,48.7618
3314751,-7.2028,48.7593
3314752,-15.2028,48.7593
3314753,-13.2028,48.7598
3314754,2.7972,48.7599
3314755,33.7972,48.7827
3314756,65.7972,48.8701
3314757,72.7972,48.9782
3314758,80.7972,49.1013
3314759,50.7972,49.1209
3314760,17.7972,49.0653
3314761,-8.2028,48.9903
3314762,-13.2028,48.8783
3314763,-13.2028,48.7566
3314764,-27.2028,48.5933
3314765,-43.2028,48.3992
3314766,-44.2028,48.2105
3314767,-41.2028,48.0615
3314768,-11.2028,47.8982
3314769,23.7972,47.7511
3314770,72.7972,47.7340
3314771,101.7972,47.8293
3314772,101.7972,47.9307
3314773,100.7972,48.0368
3314774,87.7972,48.1167
3314775,80.7972,48.1719
3314776,55.7972,48.1253
3314777,37.7972,48.0771
3314778,17.7972,48.0180
3314779,2.7972,47.9475
3314780,-14.2028,47.8858
3314781,-28.2028,47.8410
3314782,-40.2028,47.8283
3314783,-63.2028,47.8671
3314784,-76.2028,47.9418
3314785,-74.2028,48.0140
3314786,-47.2028,48.0215
3314787,-22.2028,47.9929
3314788,3.7972,47.9595
3314789,6.7972,47.9268
3314790,16.7972,47.9006
3314791,3.7972,47.8672
3314792,-14.2028,47.8341
3314793,-30.2028,47.8177
3314794,-39.2028,47.8144
3314795,-31.2028,47.8009
3314796,-30.2028,47.7845
3314797,-31.2028,47.7845
3314798,-32.2028,47.7883
3314799,-28.2028,47.7927
3314800,-23.2028,47.8026
3314801,-9.2028,47.8043
3314802,5.7972,47.8045
3314803,18.7972,47.8112
3314804,21.7972,47.8204
3314805,20.7972,47.8285
3314806,17.7972,47.8339
3314807,4.7972,47.8277
3314808,-8.2028,47.8192
3314809,-14.2028,47.7935
3314810,-28.2028,47.7167
3314811,-41.2028,47.5391
3314812,-44.2028,47.1967
3314813,-44.2028,46.7734
3314814,-41.2028,46.4257
3314815,-40.2028,46.2541
3314816,-40.2028,46.2355
3314817,-41.2028,46.2717
3314818,-43.2028,46.3093
3314819,-39.2028,46.3253
3314820,-28.2028,46.2984
3314821,-30.2028,46.2371
3314822,-15.2028,46.1097
3314823,19.7972,45.9887
3314824,80.7972,46.0465
3314825,131.7972,46.3722
3314826,151.7972,46.8189
3314827,153.7972,47.2497
3314828,118.7972,47.4377
3314829,68.7972,47.4118
3314830,33.7972,47.3035
3314831,24.7972,47.1871
3314832,48.7972,47.1045
3314833,53.7972,46.9969
3314834,40.7972,46.8472
3314835,25.7972,46.6836
3314836,18.7972,46.5242
3314837,19.7972,46.4044
3314838,7.7972,46.2869
3314839,0.7972,46.1646
3314840,-12.2028,46.0419
3314841,-25.2028,45.9716
3314842,-40.2028,45.9583
3314843,-58.2028,46.0121
3314844,-72.2028,46.1080
3314845,-77.2028,46.2199
3314846,-77.2028,46.3360
3314847,-55.2028,46.4006
3314848,-14.2028,46.3965
3314849,19.7972,46.3691
3314850,51.7972,46.3691
3314851,71.7972,46.4224
3314852,82.7972,46.5358
3314853,85.7972,46.6869
3314854,83.7972,46.8334
3314855,83.7972,46.9520
3314856,80.7972,47.0237
3314857,72.7972,47.0514
3314858,65.7972,47.0232
3314859,47.7972,46.9547
3314860,19.7972,46.8832
3314861,-8.2028,46.8639
3314862,-28.2028,46.8794
3314863,-46.2028,46.9174
3314864,-58.2028,46.9803
3314865,-57.2028,47.0489
3314866,-46.2028,47.0818
3314867,-45.2028,47.0818
3314868,-55.2028,47.0696
3314869,-56.2028,47.0518
3314870,-44.2028,47.0163
3314871,-40.2028,46.9786
3314872,-13.2028,46.9369
3314873,1.7972,46.9025
3314874,6.7972,46.8910
3314875,6.7972,46.8905
3314876,0.7972,46.8904
3314877,-10.2028,46.8923
3314878,-11.2028,46.8949
3314879,1.7972,46.8918
3314880,8.7972,46.8820
3314881,4.7972,46.8643
3314882,4.7972,46.8319
3314883,21.7972,46.8022
3314884,71.7972,46.8706
3314885,130.7972,47.1672
3314886,177.7972,47.7667
3314887,179.7972,48.4019
3314888,167.7972,48.9692
3314889,150.7972,49.4226
3314890,135.7972,49.7383
3314891,131.7972,49.9918
3314892,119.7972,50.1838
3314893,98.7972,50.3267
3314894,64.7972,50.4006
3314895,8.7972,50.4021
3314896,-30.2028,50.4033
3314897,-60.2028,50.4347
3314898,-79.2028,50.4986
3314899,-96.2028,50.5786
3314900,-112.2028,50.7033
3314901,-122.2028,50.8372
3314902,-109.2028,50.9152
3314903,-88.2028,50.9598
3314904,-58.2028,50.9598
3314905,-27.2028,50.9377
3314906,0.7972,50.9262
3314907,19.7972,50.9335
3314908,38.7972,50.9509
3314909,49.7972,50.9685
3314910,40.7972,50.9525
3314911,48.7972,50.9682
3314912,37.7972,50.9751
3314913,34.7972,50.9919
3314914,22.7972,51.0021
3314915,4.7972,50.9996
3314916,2.7972,50.9863
3314917,3.7972,50.9710
3314918,7.7972,50.9566
3314919,33.7972,50.9634
3314920,49.7972,50.9834
3314921,47.7972,50.9933
3314922,35.7972,50.9883
3314923,22.7972,50.9794
3314924,19.7972,50.9725
3314925,20.7972,50.9765
3314926,20.7972,50.9815
3314927,17.7972,50.9838
3314928,5.7972,50.9748
3314929,3.7972,50.9626
3314930,4.7972,50.9485
3314931,2.7972,50.9308
3314932,-11.2028,50.9046
3314933,-25.2028,50.8853
3314934,-24.2028,50.8635
3314935,-13.2028,50.8285
3314936,-8.2028,50.7878
3314937,-8.2028,50.7291
3314938,-10.2028,50.6908
3314939,-11.2028,50.6530
3314940,-27.2028,50.6324
3314941,-25.2028,50.6257
3314942,8.7972,50.6115
3314943,67.7972,50.6917
3314944,146.7972,51.1116
3314945,199.7972,51.8843
3314946,210.7972,52.7322
3314947,180.7972,53.3472
3314948,113.7972,53.5891
3314949,35.7972,53.6124
3314950,-31.2028,53.6253
3314951,-78.2028,53.7326
3314952,-122.2028,54.0040
3314953,-142.2028,54.3706
3314954,-150.2028,54.7782
3314955,-123.2028,55.0540
3314956,-77.2028,55.1621
3314957,-42.2028,55.1925
3314958,1.7972,55.1894
3314959,23.7972,55.1891
3314960,34.7972,55.2021
3314961,24.7972,55.2043
3314962,22.7972,55.1993
3314963,20.7972,55.1778
3314964,19.7972,55.1495
3314965,23.7972,55.1275
3314966,34.7972,55.1360
3314967,39.7972,55.1558
3314968,64.7972,55.2282
3314969,84.7972,55.3560
3314970,116.7972,55.6015
3314971,132.7972,55.9076
3314972,131.7972,56.1893
3314973,112.7972,56.3695
3314974,65.7972,56.4041
3314975,21.7972,56.3934
3314976,-6.2028,56.3933
3314977,-23.2028,56.4027
3314978,-44.2028,56.4372
3314979,-71.2028,56.5267
3314980,-72.2028,56.6186
3314981,-72.2028,56.7084
3314982,-46.2028,56.7424
3314983,4.7972,56.7398
3314984,83.7972,56.8622
3314985,175.7972,57.4013
3314986,255.7972,58.5267
3314987,304.7972,60.0833
3314988,297.7972,61.5373
3314989,257.7972,62.5979
3314990,177.7972,63.0891
3314991,98.7972,63.2311
3314992,35.7972,63.2396
3314993,-26.2028,63.2488
3314994,-76.2028,63.3344
3314995,-123.2028,63.5361
3314996,-143.2028,63.7903
3314997,-144.2028,64.0394
3314998,-125.2028,64.2436
3314999,-96.2028,64.3814
3315000,-73.2028,64.4632
3315001,-46.2028,64.4880
3315002,-30.2028,64.4889
3315003,-24.2028,64.4717
3315004,-10.2028,64.4132
3315005,1.7972,64.2924
3315006,5.7972,64.1518
3315007,17.7972,64.0212
3315008,20.7972,63.9372
3315009,33.7972,63.8984
3315010,35.7972,63.8654
3315011,39.7972,63.8442
3315012,52.7972,63.8544
3315013,55.7972,63.8726
3315014,64.7972,63.9091
3315015,65.7972,63.9527
3315016,66.7972,64.0091
3315017,68.7972,64.0706
3315018,70.7972,64.1364
3315019,71.7972,64.2043
3315020,72.7972,64.2736
3315021,80.7972,64.3636
3315022,82.7972,64.4609
3315023,81.7972,64.5619
3315024,82.7972,64.6670
3315025,87.7972,64.7859
3315026,99.7972,64.9393
3315027,115.7972,65.1451
3315028,129.7972,65.4029
3315029,130.7972,65.6640
3315030,114.7972,65.8636
3315031,83.7972,65.9685
3315032,48.7972,66.0027
3315033,35.7972,66.0202
3315034,52.7972,66.0594
3315035,68.7972,66.1206
3315036,89.7972,66.2304
3315037,111.7972,66.4060
3315038,118.7972,66.6054
3315039,129.7972,66.8433
3315040,134.7972,67.1036
3315041,150.7972,67.4306
3315042,168.7972,67.8384
3315043,179.7972,68.3016
3315044,161.7972,68.6800
3315045,117.7972,68.8802
3315046,80.7972,68.9703
3315047,51.7972,68.9946
3315048,38.7972,68.9988
3315049,37.7972,69.0106
3315050,38.7972,69.0311
3315051,33.7972,69.0475
3315052,22.7972,69.0538
3315053,8.7972,69.0531
3315054,17.7972,69.0562
3315055,22.7972,69.0625
3315056,19.7972,69.0660
3315057,7.7972,69.0640
3315058,1.7972,69.0607
3315059,-11.2028,69.0591
3315060,-13.2028,69.0591
3315061,-13.2028,69.0591
3315062,-10.2028,69.0577
3315063,0.7972,69.0548
3315064,20.7972,69.0596
3315065,47.7972,69.0897
3315066,69.7972,69.1568
3315067,83.7972,69.2576
3315068,82.7972,69.3514
3315069,68.7972,69.3824
3315070,41.7972,69.3394
3315071,22.7972,69.2503
3315072,21.7972,69.1908
3315073,16.7972,69.1731
3315074,0.7972,69.1690
3315075,-12.2028,69.1699
3315076,-14.2028,69.1651
3315077,-9.2028,69.1548
3315078,2.7972,69.1266
3315079,7.7972,69.0768
3315080,7.7972,69.0217
3315081,15.7972,68.9778
3315082,16.7972,68.9523
3315083,5.7972,68.9305
3315084,3.7972,68.9084
3315085,-9.2028,68.8826
3315086,-23.2028,68.8657
3315087,-14.2028,68.8403
3315088,2.7972,68.8094
3315089,19.7972,68.7854
3315090,36.7972,68.7827
3315091,49.7972,68.8072
3315092,53.7972,68.8407
3315093,63.7972,68.8969
3315094,64.7972,68.9549
3315095,67.7972,69.0130
3315096,68.7972,69.0716
3315097,69.7972,69.1298
3315098,84.7972,69.2214
3315099,96.7972,69.3426
3315100,97.7972,69.4664
3315101,83.7972,69.5430
3315102,64.7972,69.5935
3315103,51.7972,69.6310
3315104,51.7972,69.6639
3315105,56.7972,69.6746
3315106,55.7972,69.6233
3315107,40.7972,69.4923
3315108,38.7972,69.3072
3315109,69.7972,69.1379
3315110,135.7972,69.2427
3315111,226.7972,69.8788
3315112,272.7972,70.8610
3315113,273.7972,71.8394
3315114,230.7972,72.5060
3315115,134.7972,72.6911
3315116,36.7972,72.6743
3315117,-25.2028,72.6776
3315118,-55.2028,72.7184
3315119,-78.2028,72.7930
3315120,-104.2028,72.9311
3315121,-110.2028,73.0858
3315122,-102.2028,73.2161
3315123,-60.2028,73.2401
3315124,5.7972,73.1877
3315125,70.7972,73.1768
3315126,144.7972,73.3592
3315127,226.7972,73.9519
3315128,294.7972,75.0696
3315129,325.7972,76.4679
3315130,312.7972,77.7222
3315131,264.7972,78.5809
3315132,184.7972,78.9735
3315133,113.7972,79.1229
3315134,41.7972,79.1449
3315135,-6.2028,79.1346
3315136,-41.2028,79.1162
3315137,-75.2028,79.1387
3315138,-119.2028,79.2468
3315139,-138.2028,79.3781
3315140,-120.2028,79.4098
3315141,-94.2028,79.3686
3315142,-76.2028,79.3050
3315143,-60.2028,79.2548
3315144,-46.2028,79.2122
3315145,-43.2028,79.1900
3315146,-45.2028,79.1759
3315147,-61.2028,79.1963
3315148,-46.2028,79.2008
3315149,-9.2028,79.1834
3315150,65.7972,79.2273
3315151,151.7972,79.5102
3315152,244.7972,80.2575
3315153,288.7972,81.2888
3315154,305.7972,82.4303
3315155,291.7972,83.4558
3315156,245.7972,84.1754
3315157,212.7972,84.7086
3315158,181.7972,85.0898
3315159,145.7972,85.3312
3315160,85.7972,85.4153
3315161,23.7972,85.4217
3315162,-31.2028,85.4290
3315163,-94.2028,85.5272
3315164,-120.2028,85.6914
3315165,-95.2028,85.7964
3315166,-55.2028,85.8314
3315167,18.7972,85.8350
3315168,87.7972,85.9243
3315169,136.7972,86.1416
3315170,147.7972,86.3948
3315171,102.7972,86.5155
3315172,34.7972,86.5272
3315173,-23.2028,86.5307
3315174,-44.2028,86.5510
3315175,-74.2028,86.6126
3315176,-93.2028,86.7128
3315177,-87.2028,86.7939
3315178,-56.2028,86.7819
3315179,-26.2028,86.6989
3315180,4.7972,86.5523
3315181,34.7972,86.4192
3315182,49.7972,86.3303
3315183,52.7972,86.2472
3315184,65.7972,86.1842
3315185,83.7972,86.1524
3315186,87.7972,86.1263
3315187,70.7972,86.0756
3315188,66.7972,86.0693
3315189,99.7972,86.1708
3315190,167.7972,86.4959
3315191,249.7972,87.2110
3315192,310.7972,88.2980
3315193,340.7972,89.5842
3315194,309.7972,90.6136
3315195,226.7972,91.1441
3315196,128.7972,91.3103
3315197,35.7972,91.3239
3315198,-24.2028,91.3244
3315199,-42.2028,91.3271
3315200,-25.2028,91.3117
3315201,19.7972,91.2789
3315202,65.7972,91.2660
3315203,102.7972,91.2965
3315204,133.7972,91.3974
3315205,144.7972,91.5033
3315206,131.7972,91.5652
3315207,117.7972,91.5959
3315208,99.7972,91.6445
3315209,68.7972,91.6785
3315210,34.7972,91.6901
3315211,16.7972,91.6926
3315212,16.7972,91.6949
3315213,33.7972,91.7010
3315214,40.7972,91.7092
3315215,53.7972,91.7240
3315216,71.7972,91.7715
3315217,97.7972,91.8687
3315218,119.7972,92.0168
3315219,151.7972,92.2576
3315220,177.7972,92.5898
3315221,181.7972,92.9375
3315222,183.7972,93.2981
3315223,195.7972,93.7080
3315224,196.7972,94.1082
3315225,165.7972,94.3831
3315226,129.7972,94.5308
3315227,105.7972,94.5976
3315228,82.7972,94.6156
3315229,36.7972,94.5769
3315230,5.7972,94.5301
3315231,-12.2028,94.5022
3315232,-14.2028,94.4915
3315233,-7.2028,94.4875
3315234,18.7972,94.4911
3315235,53.7972,94.5161
3315236,98.7972,94.5986
3315237,150.7972,94.7837
3315238,192.7972,95.1108
3315239,193.7972,95.4656
3315240,152.7972,95.7027
3315241,113.7972,95.8378
3315242,73.7972,95.8914
3315243,53.7972,95.9170
3315244,54.7972,95.9429
3315245,68.7972,95.9868
3315246,68.7972,96.0302
3315247,69.7972,96.0764
3315248,69.7972,96.1234
3315249,82.7972,96.1941
3315250,104.7972,96.3081
3315251,114.7972,96.4443
3315252,88.7972,96.5236
3315253,50.7972,96.5485
3315254,2.7972,96.5485
3315255,-46.2028,96.5588
3315256,-72.2028,96.5679
3315257,-73.2028,96.5686
3315258,-57.2028,96.5348
3315259,-39.2028,96.5240
3315260,3.7972,96.5209
3315261,39.7972,96.5366
3315262,83.7972,96.6075
3315263,117.7972,96.7492
3315264,145.7972,96.9611
3315265,163.7972,97.2182
3315266,194.7972,97.5877
3315267,225.7972,98.0914
3315268,242.7972,98.6893
3315269,256.7972,99.3496
3315270,258.7972,99.9684
3315271,257.7972,100.5280
3315272,231.7972,100.9585
3315273,199.7972,101.2528
3315274,163.7972,101.4415
3315275,131.7972,101.5483
3315276,113.7972,101.6451
3315277,84.7972,101.7018
3315278,53.7972,101.7272
3315279,18.7972,101.7306
3315280,-38.2028,101.7429
3315281,-59.2028,101.7695
3315282,-55.2028,101.7836
3315283,-23.2028,101.7496
3315284,49.7972,101.7169
3315285,130.7972,101.8309
3315286,224.7972,102.3042
3315287,311.7972,103.2453
3315288,371.7972,104.5755
3315289,385.7972,105.9888
3315290,353.7972,107.1606
3315291,277.7972,107.8783
3315292,207.7972,108.2759
3315293,144.7972,108.4610
3315294,99.7972,108.5386
3315295,54.7972,108.5573
3315296,3.7972,108.5490
3315297,-46.2028,108.5597
3315298,-72.2028,108.5982
3315299,-72.2028,108.6389
3315300,-58.2028,108.6651
3315301,-10.2028,108.6653
3315302,39.7972,108.6795
3315303,71.7972,108.7237
3315304,100.7972,108.8127
3315305,113.7972,108.9277
3315306,87.7972,108.9955
3315307,50.7972,109.0190
3315308,19.7972,109.0220
3315309,5.7972,109.0204
3315310,4.7972,109.0134
3315311,21.7972,109.0021
3315312,67.7972,109.0264
3315313,85.7972,109.0760
3315314,101.7972,109.1554
3315315,116.7972,109.2655
3315316,150.7972,109.4586
3315317,209.7972,109.8446
3315318,247.7972,110.3852
3315319,273.7972,111.0484
3315320,276.7972,111.7291
3315321,257.7972,112.3143
3315322,209.7972,112.7034
3315323,165.7972,112.9436
3315324,119.7972,113.0128
3315325,85.7972,112.9242
3315326,49.7972,112.7420
3315327,17.7972,112.5348
3315328,5.7972,112.4096
3315329,18.7972,112.3707
3315330,19.7972,112.3640
3315331,8.7972,112.3592
3315332,3.7972,112.3381
3315333,-10.2028,112.3133
3315334,-11.2028,112.2996
3315335,-14.2028,112.2955
3315336,-27.2028,112.2989
3315337,-30.2028,112.3035
3315338,-27.2028,112.3096
3315339,-10.2028,112.3105
3315340,19.7972,112.3127
3315341,41.7972,112.3226
3315342,72.7972,112.3554
3315343,89.7972,112.3970
3315344,132.7972,112.5074
3315345,211.7972,112.8526
3315346,304.7972,113.6204
3315347,372.7972,114.8105
3315348,423.7972,116.3626
3315349,454.7972,118.1235
3315350,465.7972,119.9239
3315351,464.7972,121.6696
3315352,451.7972,123.2803
3315353,433.7972,124.7384
3315354,390.7972,125.9010
3315355,308.7972,126.6007
3315356,210.7972,126.8997
3315357,121.7972,126.9749
3315358,63.7972,126.9728
3315359,23.7972,126.9593
3315360,-7.2028,126.9566
3315361,-12.2028,126.9573
3315362,9.7972,126.9517
3315363,40.7972,126.9480
3315364,53.7972,126.9442
3315365,71.7972,126.9590
3315366,81.7972,126.9949
3315367,81.7972,127.0315
3315368,68.7972,127.0447
3315369,52.7972,127.0418
3315370,37.7972,127.0377
3315371,34.7972,127.0345
3315372,34.7972,127.0426
3315373,32.7972,127.0511
3315374,23.7972,127.0552
3315375,23.7972,127.0593
3315376,24.7972,127.0641
3315377,24.7972,127.0681
3315378,48.7972,127.0859
3315379,55.7972,127.1103
3315380,69.7972,127.1480
3315381,82.7972,127.2018
3315382,84.7972,127.2581
3315383,83.7972,127.3095
3315384,82.7972,127.3229
3315385,70.7972,127.2279
3315386,52.7972,127.0011
3315387,53.7972,126.7691
3315388,68.7972,126.5842
3315389,103.7972,126.4897
3315390,133.7972,126.4854
3315391,153.7972,126.5351
3315392,193.7972,126.7183
3315393,246.7972,127.1213
3315394,327.7972,127.9310
3315395,406.7972,129.2175
3315396,456.7972,130.8153
3315397,471.7972,132.4786
3315398,435.7972,133.8577
3315399,342.7972,134.6640
3315400,248.7972,135.0297
3315401,168.7972,135.1301
3315402,103.7972,135.1215
3315403,52.7972,135.0846
3315404,16.7972,135.0616
3315405,-30.2028,135.0629
3315406,-43.2028,135.0767
3315407,1.7972,135.0738
3315408,82.7972,135.1134
3315409,180.7972,135.3368
3315410,272.7972,135.8733
3315411,313.7972,136.5787
3315412,325.7972,137.3432
3315413,274.7972,137.8832
3315414,211.7972,138.2044
3315415,146.7972,138.3600
3315416,117.7972,138.4602
3315417,104.7972,138.5394
3315418,83.7972,138.5896
3315419,70.7972,138.6176
3315420,87.7972,138.6553
3315421,119.7972,138.7423
3315422,135.7972,138.8659
3315423,150.7972,139.0258
3315424,169.7972,139.2302
3315425,193.7972,139.4966
3315426,180.7972,139.7277
3315427,153.7972,139.8946
3315428,136.7972,140.0280
3315429,147.7972,140.1838
3315430,168.7972,140.3868
3315431,197.7972,140.6651
3315432,225.7972,141.0262
3315433,245.7972,141.4495
3315434,241.7972,141.8581
3315435,211.7972,142.1727
3315436,178.7972,142.3969
3315437,133.7972,142.5221
3315438,86.7972,142.5743
3315439,49.7972,142.5908
3315440,18.7972,142.5881
3315441,5.7972,142.5838
3315442,6.7972,142.5836
3315443,6.7972,142.5517
3315444,3.7972,142.4006
3315445,17.7972,142.1222
3315446,24.7972,141.8135
3315447,39.7972,141.5940
3315448,50.7972,141.5208
3315449,68.7972,141.5452
3315450,104.7972,141.6158
3315451,166.7972,141.7690
3315452,243.7972,142.0826
3315453,308.7972,142.6104
3315454,340.7972,143.2651
3315455,324.7972,143.8941
3315456,259.7972,144.3212
3315457,166.7972,144.5015
3315458,87.7972,144.5548
3315459,38.7972,144.5613
3315460,20.7972,144.5559
3315461,16.7972,144.5536
3315462,49.7972,144.5672
3315463,104.7972,144.6401
3315464,209.7972,144.9414
3315465,309.7972,145.5982
3315466,371.7972,146.5362
3315467,385.7972,147.5377
3315468,370.7972,148.4384
3315469,343.7972,149.1844
3315470,308.7972,149.7311
3315471,259.7972,150.0637
3315472,211.7972,150.2468
3315473,181.7972,150.3820
3315474,151.7972,150.5064
3315475,104.7972,150.5762
3315476,51.7972,150.5938
3315477,18.7972,150.5925
3315478,-23.2028,150.5831
3315479,-39.2028,150.5597
3315480,-45.2028,150.5386
3315481,-41.2028,150.5153
3315482,-29.2028,150.5067
3315483,-15.2028,150.5081
3315484,3.7972,150.4616
3315485,34.7972,150.2641
3315486,85.7972,149.8771
3315487,136.7972,149.3813
3315488,179.7972,149.0036
3315489,214.7972,148.8671
3315490,256.7972,149.0976
3315491,296.7972,149.6220
3315492,343.7972,150.4014
3315493,373.7972,151.3230
3315494,371.7972,152.1956
3315495,329.7972,152.8093
3315496,261.7972,153.1233
3315497,199.7972,153.2481
3315498,164.7972,153.3230
3315499,161.7972,153.4334
3315500,165.7972,153.5775
3315501,168.7972,153.7490
3315502,148.7972,153.8871
3315503,119.7972,153.9765
3315504,84.7972,154.0225
3315505,51.7972,154.0399
3315506,51.7972,154.0571
3315507,69.7972,154.0867
3315508,116.7972,154.1724
3315509,160.7972,154.3326
3315510,177.7972,154.5290
3315511,193.7972,154.7616
3315512,193.7972,154.9861
3315513,168.7972,155.1498
3315514,147.7972,155.2635
3315515,146.7972,155.3743
3315516,151.7972,155.4939
3315517,168.7972,155.6466
3315518,195.7972,155.8605
3315519,200.7972,156.0860
3315520,199.7972,156.3076
3315521,195.7972,156.5110
3315522,177.7972,156.6691
3315523,151.7972,156.7734
3315524,135.7972,156.8473
3315525,129.7972,156.9056
3315526,116.7972,156.9290
3315527,97.7972,156.9045
3315528,81.7972,156.8398
3315529,80.7972,156.7723
3315530,84.7972,156.7341
3315531,97.7972,156.7503
3315532,101.7972,156.8013
3315533,102.7972,156.8605
3315534,101.7972,156.9087
3315535,102.7972,156.9459
3315536,113.7972,156.9771
3315537,130.7972,157.0064
3315538,148.7972,157.0575
3315539,159.7972,157.1128
3315540,163.7972,157.1679
3315541,182.7972,157.2359
3315542,225.7972,157.3788
3315543,263.7972,157.6154
3315544,291.7972,157.9891
3315545,293.7972,158.4470
3315546,276.7972,158.8887
3315547,258.7972,159.2928
3315548,227.7972,159.6088
3315549,212.7972,159.8833
3315550,195.7972,160.1135
3315551,161.7972,160.2698
3315552,119.7972,160.3561
3315553,101.7972,160.4202
3315554,102.7972,160.4841
3315555,118.7972,160.5688
3315556,133.7972,160.6778
3315557,136.7972,160.7938
3315558,146.7972,160.9278
3315559,150.7972,161.0683
3315560,165.7972,161.2377
3315561,192.7972,161.4670
3315562,215.7972,161.7545
3315563,244.7972,162.1246
3315564,263.7972,162.5506
3315565,280.7972,163.0209
3315566,289.7972,163.5055
3315567,291.7972,163.9826
3315568,310.7972,164.5289
3315569,344.7972,165.2213
3315570,384.7972,166.1045
3315571,393.7972,167.0324
3315572,376.7972,167.8774
3315573,325.7972,168.5068
3315574,244.7972,168.8621
3315575,178.7972,169.0504
3315576,131.7972,169.1519
3315577,113.7972,169.2280
3315578,97.7972,169.2844
3315579,87.7972,169.3296
3315580,97.7972,169.3857
3315581,116.7972,169.4648
3315582,135.7972,169.5719
3315583,166.7972,169.7357
3315584,192.7972,169.9545
3315585,200.7972,170.1910
3315586,200.7972,170.4246
3315587,199.7972,170.6575
3315588,197.7972,170.8866
3315589,193.7972,171.1039
3315590,194.7972,171.3176
3315591,182.7972,171.4981
3315592,178.7972,171.6675
3315593,168.7972,171.8098
3315594,168.7972,171.9511
3315595,169.7972,172.0920
3315596,167.7972,172.2280
3315597,179.7972,172.3874
3315598,195.7972,172.5679
3315599,207.7972,172.7638
3315600,213.7972,172.9729
3315601,224.7972,173.2242
3315602,229.7972,173.5046
3315603,240.7972,173.8230
3315604,242.7972,174.1464
3315605,242.7972,174.4661
3315606,240.7972,174.7804
3315607,232.7972,175.0806
3315608,231.7972,175.3787
3315609,228.7972,175.6492
3315610,225.7972,175.8344
3315611,216.7972,175.8091
3315612,215.7972,175.6506
3315613,211.7972,175.4792
3315614,211.7972,175.4312
3315615,210.7972,175.5809
3315616,210.7972,175.8261
3315617,208.7972,176.0702
3315618,209.7972,176.3028
3315619,208.7972,176.5152
3315620,209.7972,176.7030
3315621,209.7972,176.8832
3315622,208.7972,177.0706
3315623,209.7972,177.2985
3315624,209.7972,177.5464
3315625,210.7972,177.7683
3315626,211.7972,177.9027
3315627,210.7972,177.8633
3315628,208.7972,177.6196
3315629,207.7972,177.2648
3315630,208.7972,176.9585
3315631,209.7972,176.8109
3315632,210.7972,176.8691
3315633,214.7972,177.0567
3315634,214.7972,177.3072
3315635,225.7972,177.5943
3315636,228.7972,177.8793
3315637,230.7972,178.1467
3315638,232.7972,178.3710
3315639,242.7972,178.5943
3315640,242.7972,178.8433
3315641,232.7972,179.0965
3315642,216.7972,179.3264
3315643,210.7972,179.5538
3315644,196.7972,179.7575
3315645,183.7972,179.9350
3315646,177.7972,180.0992
3315647,166.7972,180.2329
3315648,168.7972,180.3791
3315649,178.7972,180.5557
3315650,196.7972,180.7462
3315651,230.7972,180.9133
3315652,272.7972,180.9934
3315653,308.7972,181.0594
3315654,357.7972,181.2499
3315655,403.7972,181.6792
3315656,423.7972,182.3341
3315657,437.7972,183.1351
3315658,421.7972,183.9245
3315659,372.7972,184.5634
3315660,311.7972,185.0496
3315661,274.7972,185.4542
3315662,229.7972,185.7335
3315663,192.7972,185.8858
3315664,146.7972,185.9239
3315665,98.7972,185.9277
3315666,39.7972,185.9198
3315667,16.7972,185.9194
3315668,18.7972,185.8799
3315669,23.7972,185.7822
3315670,32.7972,185.6704
3315671,19.7972,185.6156
3315672,16.7972,185.6106
3315673,7.7972,185.6080
3315674,20.7972,185.5998
3315675,36.7972,185.5774
3315676,49.7972,185.5440
3315677,64.7972,185.5256
3315678,80.7972,185.5438
3315679,84.7972,185.5789
3315680,87.7972,185.6203
3315681,99.7972,185.6674
3315682,105.7972,185.7143
3315683,117.7972,185.7740
3315684,129.7972,185.8414
3315685,129.7972,185.8942
3315686,131.7972,185.9462
3315687,134.7972,186.0170
3315688,134.7972,186.0906
3315689,132.7972,186.1319
3315690,132.7972,186.0753
3315691,132.7972,185.8346
3315692,131.7972,185.4078
3315693,131.7972,184.8743
3315694,129.7972,184.4458
3315695,130.7972,184.2596
3315696,133.7972,184.2667
3315697,149.7972,184.3815
3315698,166.7972,184.5292
3315699,183.7972,184.7025
3315700,196.7972,184.9086
3315701,196.7972,185.1159
3315702,197.7972,185.3037
3315703,208.7972,185.4819
3315704,214.7972,185.6340
3315705,216.7972,185.7742
3315706,213.7972,185.9267
3315707,185.7972,186.0377
3315708,153.7972,186.1113
3315709,118.7972,186.1617
3315710,88.7972,186.1976
3315711,56.7972,186.2134
3315712,33.7972,186.2180
3315713,5.7972,186.2120
3315714,5.7972,186.2033
3315715,8.7972,186.1881
3315716,22.7972,186.1632
3315717,34.7972,186.1184
3315718,48.7972,186.0540
3315719,51.7972,185.9446
3315720,57.7972,185.7925
3315721,66.7972,185.6385
3315722,70.7972,185.4835
3315723,71.7972,185.3045
3315724,71.7972,185.1233
3315725,71.7972,185.0026
3315726,81.7972,184.9477
3315727,81.7972,184.9233
3315728,88.7972,184.9289
3315729,99.7972,184.9754
3315730,104.7972,185.0346
3315731,117.7972,185.1088
3315732,131.7972,185.2015
3315733,136.7972,185.3022
3315734,149.7972,185.4214
3315735,151.7972,185.5300
3315736,150.7972,185.6000
3315737,146.7972,185.5935
3315738,129.7972,185.4840
3315739,114.7972,185.3525
3315740,103.7972,185.2847
3315741,98.7972,185.2675
3315742,85.7972,185.2778
3315743,80.7972,185.2974
3315744,67.7972,185.3060
3315745,55.7972,185.2973
3315746,67.7972,185.2965
3315747,68.7972,185.2958
3315748,68.7972,185.2950
3315749,64.7972,185.2807
3315750,55.7972,185.2382
3315751,66.7972,185.1912
3315752,81.7972,185.1847
3315753,82.7972,185.2078
3315754,88.7972,185.2503
3315755,100.7972,185.2936
3315756,96.7972,185.3161
3315757,98.7972,185.3398
3315758,104.7972,185.3814
3315759,118.7972,185.4492
3315760,133.7972,185.5457
3315761,131.7972,185.6307
3315762,115.7972,185.6651
3315763,96.7972,185.6409
3315764,51.7972,185.5408
3315765,4.7972,185.3963
3315766,-40.2028,185.2002
3315767,-78.2028,184.9578
3315768,-105.2028,184.6987
3315769,-136.2028,184.4419
3315770,-142.2028,184.1883
3315771,-125.2028,183.9123
3315772,-105.2028,183.6802
3315773,-78.2028,183.4961
3315774,-58.2028,183.3683
3315775,-29.2028,183.2782
3315776,-10.2028,183.2081
3315777,2.7972,183.1689
3315778,6.7972,183.1533
3315779,8.7972,183.1518
3315780,18.7972,183.1458
3315781,23.7972,183.1297
3315782,22.7972,183.1159
3315783,17.7972,183.1147
3315784,2.7972,183.1012
3315785,-12.2028,183.0086
3315786,-22.2028,182.7349
3315787,-15.2028,182.2034
3315788,-24.2028,181.4464
3315789,-23.2028,180.6272
3315790,-26.2028,179.9367
3315791,-26.2028,179.5111
3315792,-26.2028,179.2743
3315793,-11.2028,179.1580
3315794,4.7972,179.1025
3315795,20.7972,179.0882
3315796,39.7972,179.0969
3315797,53.7972,179.1012
3315798,65.7972,179.0962
3315799,69.7972,179.0943
3315800,83.7972,179.1146
3315801,86.7972,179.1561
3315802,80.7972,179.1837
3315803,65.7972,179.1791
3315804,40.7972,179.1317
3315805,20.7972,179.0618
3315806,-9.2028,179.0192
3315807,-45.2028,179.0162
3315808,-78.2028,179.0482
3315809,-124.2028,179.1341
3315810,-152.2028,179.2632
3315811,-154.2028,179.3932
3315812,-142.2028,179.4803
3315813,-135.2028,179.5411
3315814,-121.2028,179.5652
3315815,-111.2028,179.5581
3315816,-110.2028,179.4991
3315817,-104.2028,179.3143
3315818,-92.2028,179.0190
3315819,-91.2028,178.6463
3315820,-94.2028,178.2667
3315821,-95.2028,177.9445
3315822,-103.2028,177.7569
3315823,-94.2028,177.6521
3315824,-91.2028,177.6182
3315825,-86.2028,177.6185
3315826,-77.2028,177.6381
3315827,-62.2028,177.6581
3315828,-60.2028,177.6783
3315829,-46.2028,177.6884
3315830,-40.2028,177.6953
3315831,-9.2028,177.6953
3315832,18.7972,177.6972
3315833,51.7972,177.7117
3315834,85.7972,177.7524
3315835,130.7972,177.8475
3315836,163.7972,177.9942
3315837,182.7972,178.1767
3315838,178.7972,178.3518
3315839,143.7972,178.4672
3315840,85.7972,178.5062
3315841,-6.2028,178.4966
3315842,-88.2028,178.5105
3315843,-140.2028,178.5755
3315844,-171.2028,178.6408
3315845,-199.2028,178.6119
3315846,-217.2028,178.3557
3315847,-221.2028,177.8501
3315848,-216.2028,177.1015
3315849,-188.2028,176.1309
3315850,-158.2028,175.0378
3315851,-139.2028,173.9106
3315852,-105.2028,172.7970
3315853,-57.2028,171.7235
3315854,32.7972,170.8382
3315855,88.7972,170.3254
3315856,120.7972,170.1501
3315857,131.7972,170.1650
3315858,127.7972,170.2370
3315859,102.7972,170.2958
3315860,68.7972,170.3233
3315861,36.7972,170.3303
3315862,-8.2028,170.3302
3315863,-55.2028,170.3383
3315864,-95.2028,170.3745
3315865,-136.2028,170.4531
3315866,-155.2028,170.5551
3315867,-200.2028,170.7508
3315868,-248.2028,171.0836
3315869,-270.2028,171.4935
3315870,-279.2028,171.9392
3315871,-253.2028,172.3046
3315872,-220.2028,172.5788
3315873,-190.2028,172.7821
3315874,-171.2028,172.9483
3315875,-157.2028,173.0879
3315876,-153.2028,173.2199
3315877,-152.2028,173.3500
3315878,-141.2028,173.4513
3315879,-139.2028,173.5450
3315880,-135.2028,173.6223
3315881,-124.2028,173.6716
3315882,-122.2028,173.7162
3315883,-121.2028,173.7603
3315884,-112.2028,173.7933
3315885,-118.2028,173.8449
3315886,-120.2028,173.9119
3315887,-120.2028,173.9784
3315888,-120.2028,174.0342
3315889,-118.2028,174.0526
3315890,-110.2028,174.0195
3315891,-106.2028,173.9484
3315892,-103.2028,173.7936
3315893,-102.2028,173.5030
3315894,-94.2028,172.9339
3315895,-102.2028,172.0351
3315896,-95.2028,170.8709
3315897,-94.2028,169.6155
3315898,-79.2028,168.5293
3315899,-77.2028,167.8661
3315900,-74.2028,167.5299
3315901,-57.2028,167.3792
3315902,-43.2028,167.3260
3315903,-25.2028,167.3132
3315904,-8.2028,167.3119
3315905,4.7972,167.3066
3315906,6.7972,167.2957
3315907,1.7972,167.2957
3315908,-13.2028,167.2557
3315909,-26.2028,167.0643
3315910,-41.2028,166.6284
3315911,-61.2028,166.0590
3315912,-89.2028,165.4667
3315913,-122.2028,165.1002
3315914,-143.2028,164.9526
3315915,-159.2028,164.9756
3315916,-159.2028,165.0451
3315917,-141.2028,165.0994
3315918,-125.2028,165.1518
3315919,-120.2028,165.2089
3315920,-118.2028,165.2468
3315921,-122.2028,165.2503
3315922,-134.2028,165.2477
3315923,-137.2028,165.2240
3315924,-136.2028,165.1618
3315925,-137.2028,165.0483
3315926,-136.2028,164.9627
3315927,-135.2028,164.9301
3315928,-135.2028,164.9275
3315929,-122.2028,164.8856
3315930,-105.2028,164.7798
3315931,-77.2028,164.5785
3315932,-46.2028,164.2814
3315933,-23.2028,163.9165
3315934,-8.2028,163.5598
3315935,2.7972,163.2854
3315936,1.7972,163.0895
3315937,-15.2028,162.9811
3315938,-48.2028,162.9492
3315939,-75.2028,162.9686
3315940,-105.2028,163.0344
3315941,-125.2028,163.1303
3315942,-154.2028,163.2757
3315943,-184.2028,163.4831
3315944,-204.2028,163.7379
3315945,-218.2028,164.0265
3315946,-216.2028,164.3075
