# Recording Date (IST): 2025-11-07 16:59:34
Timestamp_ms,EMG
3311061,2249
3311062,2249
3311063,2248
3311064,2249
3311065,2251
3311066,2250
3311067,2250
3311068,2252
3311069,2251
3311070,2251
3311071,2249
3311072,2249
3311073,2250
3311074,2249
3311075,2249
3311076,2249
3311077,2249
3311078,2249
3311079,2248
3311080,2249
3311081,2249
3311082,2249
3311083,2250
3311084,2250
3311085,2249
3311086,2248
3311087,2249
3311088,2248
3311089,2249
3311090,2249
3311091,2250
3311092,2249
3311093,2250
3311094,2250
3311095,2248
3311096,2238
3311097,2248
3311098,2248
3311099,2248
3311100,2248
3311101,2249
3311102,2248
3311103,2248
3311104,2247
3311105,2238
3311106,2239
3311107,2237
3311108,2237
3311109,2240
3311110,2248
3311111,2248
3311112,2238
3311113,2240
3311114,2250
3311115,2250
3311116,2250
3311117,2248
3311118,2248
3311119,2251
3311120,2253
3311121,2251
3311122,2249
3311123,2249
3311124,2250
3311125,2250
3311126,2249
3311127,2250
3311128,2249
3311129,2251
3311130,2253
3311131,2253
3311132,2252
3311133,2252
3311134,2251
3311135,2253
3311136,2253
3311137,2253
3311138,2253
3311139,2252
3311140,2250
3311141,2250
3311142,2252
3311143,2250
3311144,2251
3311145,2251
3311146,2251
3311147,2252
3311148,2252
3311149,2253
3311150,2252
3311151,2252
3311152,2249
3311153,2249
3311154,2249
3311155,2251
3311156,2255
3311157,2265
3311158,2264
3311159,2263
3311160,2263
3311161,2255
3311162,2263
3311163,2254
3311164,2254
3311165,2255
3311166,2262
3311167,2254
3311168,2253
3311169,2254
3311170,2255
3311171,2264
3311172,2264
3311173,2255
3311174,2254
3311175,2251
3311176,2253
3311177,2255
3311178,2266
3311179,2264
3311180,2264
3311181,2263
3311182,2262
3311183,2263
3311184,2264
3311185,2254
3311186,2252
3311187,2251
3311188,2263
3311189,2266
3311190,2265
3311191,2264
3311192,2262
3311193,2254
3311194,2255
3311195,2256
3311196,2265
3311197,2266
3311198,2264
3311199,2253
3311200,2253
3311201,2253
3311202,2253
3311203,2251
3311204,2253
3311205,2255
3311206,2263
3311207,2264
3311208,2263
3311209,2254
3311210,2251
3311211,2250
3311212,2246
3311213,2248
3311214,2248
3311215,2247
3311216,2239
3311217,2238
3311218,2247
3311219,2248
3311220,2248
3311221,2249
3311222,2250
3311223,2248
3311224,2248
3311225,2248
3311226,2248
3311227,2249
3311228,2248
3311229,2249
3311230,2249
3311231,2248
3311232,2248
3311233,2249
3311234,2248
3311235,2249
3311236,2248
3311237,2248
3311238,2248
3311239,2249
3311240,2249
3311241,2249
3311242,2248
3311243,2247
3311244,2249
3311245,2247
3311246,2247
3311247,2247
3311248,2249
3311249,2248
3311250,2247
3311251,2240
3311252,2239
3311253,2238
3311254,2239
3311255,2239
3311256,2238
3311257,2239
3311258,2240
3311259,2238
3311260,2235
3311261,2235
3311262,2235
3311263,2232
3311264,2234
3311265,2234
3311266,2235
3311267,2235
3311268,2233
3311269,2232
3311270,2233
3311271,2233
3311272,2232
3311273,2235
3311274,2235
3311275,2233
3311276,2222
3311277,2221
3311278,2223
3311279,2221
3311280,2231
3311281,2232
3311282,2232
3311283,2223
3311284,2221
3311285,2222
3311286,2223
3311287,2230
3311288,2222
3311289,2221
3311290,2223
3311291,2219
3311292,2219
3311293,2222
3311294,2222
3311295,2222
3311296,2222
3311297,2223
3311298,2223
3311299,2223
3311300,2232
3311301,2232
3311302,2231
3311303,2223
3311304,2223
3311305,2231
3311306,2231
3311307,2222
3311308,2232
3311309,2232
3311310,2231
3311311,2230
3311312,2231
3311313,2231
3311314,2224
3311315,2232
3311316,2232
3311317,2232
3311318,2232
3311319,2233
3311320,2233
3311321,2233
3311322,2233
3311323,2233
3311324,2232
3311325,2235
3311326,2234
3311327,2233
3311328,2235
3311329,2235
3311330,2236
3311331,2235
3311332,2236
3311333,2237
3311334,2237
3311335,2239
3311336,2239
3311337,2248
3311338,2248
3311339,2249
3311340,2249
3311341,2250
3311342,2250
3311343,2247
3311344,2240
3311345,2239
3311346,2240
3311347,2239
3311348,2237
3311349,2248
3311350,2248
3311351,2239
3311352,2240
3311353,2248
3311354,2249
3311355,2250
3311356,2252
3311357,2256
3311358,2251
3311359,2249
3311360,2247
3311361,2238
3311362,2236
3311363,2238
3311364,2239
3311365,2248
3311366,2251
3311367,2251
3311368,2249
3311369,2249
3311370,2249
3311371,2248
3311372,2250
3311373,2252
3311374,2252
3311375,2252
3311376,2253
3311377,2253
3311378,2254
3311379,2253
3311380,2254
3311381,2253
3311382,2254
3311383,2255
3311384,2254
3311385,2262
3311386,2263
3311387,2264
3311388,2264
3311389,2262
3311390,2255
3311391,2264
3311392,2262
3311393,2256
3311394,2264
3311395,2264
3311396,2264
3311397,2265
3311398,2264
3311399,2264
3311400,2264
3311401,2255
3311402,2262
3311403,2262
3311404,2254
3311405,2253
3311406,2254
3311407,2254
3311408,2254
3311409,2254
3311410,2253
3311411,2254
3311412,2262
3311413,2263
3311414,2264
3311415,2264
3311416,2263
3311417,2256
3311418,2255
3311419,2263
3311420,2255
3311421,2254
3311422,2252
3311423,2254
3311424,2252
3311425,2252
3311426,2254
3311427,2263
3311428,2263
3311429,2265
3311430,2264
3311431,2255
3311432,2254
3311433,2254
3311434,2253
3311435,2254
3311436,2256
3311437,2255
3311438,2264
3311439,2263
3311440,2255
3311441,2255
3311442,2253
3311443,2252
3311444,2253
3311445,2253
3311446,2253
3311447,2252
3311448,2253
3311449,2253
3311450,2254
3311451,2263
3311452,2263
3311453,2264
3311454,2263
3311455,2262
3311456,2253
3311457,2253
3311458,2253
3311459,2253
3311460,2251
3311461,2252
3311462,2254
3311463,2254
3311464,2256
3311465,2264
3311466,2254
3311467,2254
3311468,2253
3311469,2253
3311470,2252
3311471,2251
3311472,2251
3311473,2250
3311474,2251
3311475,2251
3311476,2252
3311477,2252
3311478,2251
3311479,2251
3311480,2248
3311481,2250
3311482,2250
3311483,2250
3311484,2250
3311485,2251
3311486,2253
3311487,2250
3311488,2250
3311489,2249
3311490,2248
3311491,2248
3311492,2248
3311493,2249
3311494,2247
3311495,2247
3311496,2249
3311497,2250
3311498,2248
3311499,2239
3311500,2248
3311501,2250
3311502,2239
3311503,2239
3311504,2239
3311505,2249
3311506,2248
3311507,2249
3311508,2250
3311509,2250
3311510,2250
3311511,2249
3311512,2251
3311513,2249
3311514,2249
3311515,2249
3311516,2250
3311517,2250
3311518,2250
3311519,2250
3311520,2249
3311521,2249
3311522,2249
3311523,2251
3311524,2250
3311525,2249
3311526,2249
3311527,2249
3311528,2250
3311529,2252
3311530,2255
3311531,2255
3311532,2262
3311533,2254
3311534,2252
3311535,2250
3311536,2249
3311537,2250
3311538,2252
3311539,2250
3311540,2249
3311541,2249
3311542,2249
3311543,2248
3311544,2248
3311545,2247
3311546,2247
3311547,2247
3311548,2238
3311549,2250
3311550,2252
3311551,2250
3311552,2248
3311553,2247
3311554,2248
3311555,2236
3311556,2236
3311557,2237
3311558,2233
3311559,2232
3311560,2238
3311561,2239
3311562,2249
3311563,2248
3311564,2248
3311565,2248
3311566,2248
3311567,2237
3311568,2238
3311569,2237
3311570,2237
3311571,2237
3311572,2237
3311573,2236
3311574,2235
3311575,2236
3311576,2248
3311577,2248
3311578,2236
3311579,2234
3311580,2233
3311581,2234
3311582,2235
3311583,2237
3311584,2238
3311585,2235
3311586,2237
3311587,2237
3311588,2237
3311589,2247
3311590,2238
3311591,2248
3311592,2247
3311593,2239
3311594,2248
3311595,2238
3311596,2238
3311597,2239
3311598,2238
3311599,2250
3311600,2249
3311601,2248
3311602,2238
3311603,2239
3311604,2239
3311605,2248
3311606,2248
3311607,2250
3311608,2252
3311609,2253
3311610,2251
3311611,2251
3311612,2252
3311613,2253
3311614,2253
3311615,2253
3311616,2255
3311617,2255
3311618,2256
3311619,2264
3311620,2263
3311621,2264
3311622,2264
3311623,2264
3311624,2256
3311625,2265
3311626,2266
3311627,2266
3311628,2269
3311629,2269
3311630,2278
3311631,2280
3311632,2280
3311633,2279
3311634,2281
3311635,2280
3311636,2280
3311637,2280
3311638,2280
3311639,2281
3311640,2280
3311641,2281
3311642,2280
3311643,2280
3311644,2280
3311645,2283
3311646,2284
3311647,2283
3311648,2283
3311649,2284
3311650,2283
3311651,2282
3311652,2281
3311653,2281
3311654,2281
3311655,2282
3311656,2283
3311657,2280
3311658,2283
3311659,2285
3311660,2284
3311661,2282
3311662,2283
3311663,2283
3311664,2282
3311665,2284
3311666,2285
3311667,2283
3311668,2280
3311669,2271
3311670,2270
3311671,2268
3311672,2268
3311673,2271
3311674,2270
3311675,2271
3311676,2271
3311677,2271
3311678,2269
3311679,2269
3311680,2268
3311681,2270
3311682,2270
3311683,2271
3311684,2279
3311685,2279
3311686,2269
3311687,2280
3311688,2279
3311689,2280
3311690,2272
3311691,2280
3311692,2280
3311693,2272
3311694,2270
3311695,2278
3311696,2284
3311697,2286
3311698,2286
3311699,2285
3311700,2280
3311701,2272
3311702,2267
3311703,2268
3311704,2270
3311705,2271
3311706,2270
3311707,2272
3311708,2271
3311709,2280
3311710,2281
3311711,2285
3311712,2287
3311713,2284
3311714,2285
3311715,2283
3311716,2279
3311717,2270
3311718,2268
3311719,2269
3311720,2270
3311721,2280
3311722,2281
3311723,2281
3311724,2280
3311725,2281
3311726,2281
3311727,2282
3311728,2279
3311729,2279
3311730,2280
3311731,2281
3311732,2280
3311733,2281
3311734,2281
3311735,2281
3311736,2282
3311737,2282
3311738,2281
3311739,2280
3311740,2283
3311741,2282
3311742,2282
3311743,2282
3311744,2281
3311745,2284
3311746,2285
3311747,2285
3311748,2283
3311749,2283
3311750,2286
3311751,2286
3311752,2285
3311753,2283
3311754,2284
3311755,2283
3311756,2285
3311757,2283
3311758,2285
3311759,2285
3311760,2285
3311761,2285
3311762,2286
3311763,2288
3311764,2296
3311765,2295
3311766,2295
3311767,2297
3311768,2296
3311769,2295
3311770,2294
3311771,2286
3311772,2294
3311773,2295
3311774,2298
3311775,2297
3311776,2298
3311777,2301
3311778,2301
3311779,2302
3311780,2312
3311781,2300
3311782,2294
3311783,2285
3311784,2287
3311785,2287
3311786,2297
3311787,2298
3311788,2296
3311789,2295
3311790,2297
3311791,2296
3311792,2288
3311793,2286
3311794,2287
3311795,2286
3311796,2285
3311797,2285
3311798,2284
3311799,2287
3311800,2287
3311801,2286
3311802,2285
3311803,2284
3311804,2285
3311805,2285
3311806,2284
3311807,2282
3311808,2284
3311809,2283
3311810,2284
3311811,2284
3311812,2284
3311813,2285
3311814,2284
3311815,2284
3311816,2283
3311817,2283
3311818,2285
3311819,2285
3311820,2286
3311821,2282
3311822,2281
3311823,2282
3311824,2279
3311825,2281
3311826,2281
3311827,2282
3311828,2282
3311829,2283
3311830,2284
3311831,2286
3311832,2286
3311833,2287
3311834,2283
3311835,2282
3311836,2282
3311837,2280
3311838,2281
3311839,2282
3311840,2282
3311841,2283
3311842,2285
3311843,2285
3311844,2286
3311845,2286
3311846,2285
3311847,2295
3311848,2295
3311849,2286
3311850,2285
3311851,2283
3311852,2285
3311853,2286
3311854,2286
3311855,2286
3311856,2283
3311857,2283
3311858,2284
3311859,2286
3311860,2283
3311861,2283
3311862,2286
3311863,2286
3311864,2287
3311865,2298
3311866,2299
3311867,2300
3311868,2298
3311869,2297
3311870,2296
3311871,2284
3311872,2283
3311873,2283
3311874,2283
3311875,2281
3311876,2280
3311877,2282
3311878,2284
3311879,2286
3311880,2288
3311881,2295
3311882,2295
3311883,2286
3311884,2285
3311885,2286
3311886,2294
3311887,2301
3311888,2299
3311889,2288
3311890,2286
3311891,2285
3311892,2286
3311893,2295
3311894,2295
3311895,2296
3311896,2295
3311897,2295
3311898,2295
3311899,2296
3311900,2297
3311901,2297
3311902,2297
3311903,2296
3311904,2295
3311905,2296
3311906,2295
3311907,2287
3311908,2285
3311909,2297
3311910,2296
3311911,2296
3311912,2295
3311913,2296
3311914,2287
3311915,2283
3311916,2285
3311917,2296
3311918,2297
3311919,2285
3311920,2286
3311921,2300
3311922,2301
3311923,2296
3311924,2297
3311925,2297
3311926,2297
3311927,2298
3311928,2298
3311929,2298
3311930,2300
3311931,2300
3311932,2301
3311933,2299
3311934,2295
3311935,2285
3311936,2284
3311937,2287
3311938,2285
3311939,2284
3311940,2286
3311941,2286
3311942,2287
3311943,2284
3311944,2284
3311945,2284
3311946,2284
3311947,2286
3311948,2285
3311949,2295
3311950,2282
3311951,2269
3311952,2267
3311953,2280
3311954,2286
3311955,2297
3311956,2294
3311957,2295
3311958,2288
3311959,2285
3311960,2282
3311961,2281
3311962,2279
3311963,2283
3311964,2285
3311965,2285
3311966,2282
3311967,2284
3311968,2286
3311969,2285
3311970,2283
3311971,2278
3311972,2271
3311973,2280
3311974,2282
3311975,2279
3311976,2284
3311977,2294
3311978,2295
3311979,2287
3311980,2296
3311981,2296
3311982,2288
3311983,2286
3311984,2295
3311985,2295
3311986,2286
3311987,2285
3311988,2283
3311989,2281
3311990,2280
3311991,2281
3311992,2282
3311993,2285
3311994,2285
3311995,2282
3311996,2281
3311997,2284
3311998,2280
3311999,2282
3312000,2286
3312001,2282
3312002,2267
3312003,2265
3312004,2280
3312005,2282
3312006,2283
3312007,2296
3312008,2302
3312009,2303
3312010,2302
3312011,2297
3312012,2287
3312013,2286
3312014,2295
3312015,2296
3312016,2294
3312017,2285
3312018,2295
3312019,2296
3312020,2295
3312021,2297
3312022,2296
3312023,2286
3312024,2296
3312025,2296
3312026,2296
3312027,2285
3312028,2283
3312029,2281
3312030,2280
3312031,2269
3312032,2272
3312033,2280
3312034,2284
3312035,2298
3312036,2296
3312037,2287
3312038,2286
3312039,2298
3312040,2300
3312041,2303
3312042,2298
3312043,2296
3312044,2287
3312045,2294
3312046,2296
3312047,2297
3312048,2295
3312049,2296
3312050,2287
3312051,2286
3312052,2297
3312053,2296
3312054,2296
3312055,2287
3312056,2286
3312057,2284
3312058,2285
3312059,2284
3312060,2284
3312061,2282
3312062,2281
3312063,2281
3312064,2284
3312065,2296
3312066,2287
3312067,2296
3312068,2295
3312069,2285
3312070,2283
3312071,2296
3312072,2299
3312073,2300
3312074,2300
3312075,2300
3312076,2297
3312077,2294
3312078,2284
3312079,2280
3312080,2271
3312081,2282
3312082,2287
3312083,2282
3312084,2281
3312085,2278
3312086,2279
3312087,2282
3312088,2286
3312089,2286
3312090,2284
3312091,2286
3312092,2295
3312093,2299
3312094,2296
3312095,2297
3312096,2297
3312097,2287
3312098,2295
3312099,2300
3312100,2297
3312101,2283
3312102,2286
3312103,2297
3312104,2299
3312105,2299
3312106,2299
3312107,2296
3312108,2286
3312109,2286
3312110,2287
3312111,2296
3312112,2303
3312113,2304
3312114,2311
3312115,2304
3312116,2300
3312117,2297
3312118,2285
3312119,2280
3312120,2283
3312121,2285
3312122,2297
3312123,2285
3312124,2296
3312125,2300
3312126,2312
3312127,2317
3312128,2314
3312129,2301
3312130,2301
3312131,2312
3312132,2301
3312133,2312
3312134,2317
3312135,2316
3312136,2314
3312137,2313
3312138,2312
3312139,2300
3312140,2300
3312141,2312
3312142,2311
3312143,2314
3312144,2316
3312145,2314
3312146,2314
3312147,2318
3312148,2315
3312149,2314
3312150,2318
3312151,2330
3312152,2345
3312153,2329
3312154,2313
3312155,2310
3312156,2315
3312157,2315
3312158,2316
3312159,2316
3312160,2315
3312161,2318
3312162,2318
3312163,2329
3312164,2318
3312165,2316
3312166,2317
3312167,2327
3312168,2328
3312169,2328
3312170,2319
3312171,2316
3312172,2328
3312173,2327
3312174,2316
3312175,2318
3312176,2328
3312177,2330
3312178,2331
3312179,2332
3312180,2332
3312181,2332
3312182,2331
3312183,2329
3312184,2332
3312185,2334
3312186,2335
3312187,2331
3312188,2331
3312189,2331
3312190,2343
3312191,2333
3312192,2334
3312193,2343
3312194,2342
3312195,2335
3312196,2334
3312197,2333
3312198,2332
3312199,2346
3312200,2348
3312201,2346
3312202,2350
3312203,2348
3312204,2347
3312205,2351
3312206,2364
3312207,2377
3312208,2365
3312209,2360
3312210,2335
3312211,2329
3312212,2329
3312213,2333
3312214,2333
3312215,2344
3312216,2344
3312217,2332
3312218,2330
3312219,2318
3312220,2313
3312221,2314
3312222,2317
3312223,2332
3312224,2336
3312225,2332
3312226,2327
3312227,2328
3312228,2318
3312229,2314
3312230,2319
3312231,2332
3312232,2333
3312233,2334
3312234,2330
3312235,2335
3312236,2351
3312237,2361
3312238,2347
3312239,2343
3312240,2335
3312241,2332
3312242,2316
3312243,2316
3312244,2346
3312245,2351
3312246,2361
3312247,2351
3312248,2334
3312249,2332
3312250,2334
3312251,2343
3312252,2343
3312253,2344
3312254,2344
3312255,2344
3312256,2348
3312257,2347
3312258,2343
3312259,2333
3312260,2346
3312261,2346
3312262,2344
3312263,2345
3312264,2350
3312265,2351
3312266,2360
3312267,2360
3312268,2359
3312269,2359
3312270,2360
3312271,2360
3312272,2349
3312273,2335
3312274,2319
3312275,2314
3312276,2341
3312277,2361
3312278,2376
3312279,2377
3312280,2376
3312281,2364
3312282,2363
3312283,2363
3312284,2366
3312285,2366
3312286,2367
3312287,2365
3312288,2350
3312289,2344
3312290,2335
3312291,2346
3312292,2359
3312293,2360
3312294,2348
3312295,2347
3312296,2362
3312297,2379
3312298,2381
3312299,2391
3312300,2376
3312301,2362
3312302,2360
3312303,2360
3312304,2377
3312305,2382
3312306,2381
3312307,2376
3312308,2360
3312309,2333
3312310,2312
3312311,2320
3312312,2346
3312313,2375
3312314,2382
3312315,2391
3312316,2395
3312317,2392
3312318,2376
3312319,2349
3312320,2335
3312321,2343
3312322,2347
3312323,2381
3312324,2398
3312325,2393
3312326,2392
3312327,2379
3312328,2377
3312329,2378
3312330,2376
3312331,2366
3312332,2364
3312333,2365
3312334,2364
3312335,2364
3312336,2364
3312337,2365
3312338,2358
3312339,2346
3312340,2345
3312341,2361
3312342,2367
3312343,2362
3312344,2333
3312345,2328
3312346,2329
3312347,2330
3312348,2327
3312349,2334
3312350,2364
3312351,2365
3312352,2359
3312353,2343
3312354,2330
3312355,2345
3312356,2349
3312357,2359
3312358,2363
3312359,2376
3312360,2379
3312361,2367
3312362,2361
3312363,2359
3312364,2350
3312365,2345
3312366,2345
3312367,2345
3312368,2344
3312369,2344
3312370,2334
3312371,2344
3312372,2334
3312373,2332
3312374,2334
3312375,2334
3312376,2330
3312377,2330
3312378,2333
3312379,2332
3312380,2332
3312381,2332
3312382,2332
3312383,2332
3312384,2332
3312385,2331
3312386,2334
3312387,2331
3312388,2333
3312389,2332
3312390,2327
3312391,2317
3312392,2319
3312393,2329
3312394,2333
3312395,2331
3312396,2314
3312397,2312
3312398,2303
3312399,2311
3312400,2312
3312401,2312
3312402,2312
3312403,2311
3312404,2314
3312405,2314
3312406,2312
3312407,2314
3312408,2328
3312409,2316
3312410,2299
3312411,2298
3312412,2298
3312413,2296
3312414,2296
3312415,2295
3312416,2295
3312417,2295
3312418,2295
3312419,2284
3312420,2286
3312421,2298
3312422,2299
3312423,2297
3312424,2286
3312425,2295
3312426,2287
3312427,2285
3312428,2285
3312429,2287
3312430,2285
3312431,2287
3312432,2295
3312433,2287
3312434,2285
3312435,2286
3312436,2285
3312437,2284
3312438,2282
3312439,2271
3312440,2270
3312441,2280
3312442,2280
3312443,2271
3312444,2268
3312445,2268
3312446,2265
3312447,2268
3312448,2269
3312449,2269
3312450,2265
3312451,2268
3312452,2284
3312453,2280
3312454,2281
3312455,2287
3312456,2286
3312457,2287
3312458,2284
3312459,2282
3312460,2280
3312461,2280
3312462,2279
3312463,2279
3312464,2268
3312465,2267
3312466,2266
3312467,2266
3312468,2264
3312469,2265
3312470,2262
3312471,2254
3312472,2255
3312473,2264
3312474,2254
3312475,2252
3312476,2251
3312477,2251
3312478,2250
3312479,2248
3312480,2239
3312481,2247
3312482,2239
3312483,2246
3312484,2238
3312485,2237
3312486,2236
3312487,2238
3312488,2237
3312489,2238
3312490,2234
3312491,2234
3312492,2238
3312493,2247
3312494,2248
3312495,2234
3312496,2221
3312497,2220
3312498,2217
3312499,2218
3312500,2218
3312501,2220
3312502,2232
3312503,2223
3312504,2219
3312505,2218
3312506,2220
3312507,2220
3312508,2222
3312509,2223
3312510,2218
3312511,2215
3312512,2215
3312513,2216
3312514,2219
3312515,2221
3312516,2218
3312517,2218
3312518,2218
3312519,2218
3312520,2221
3312521,2221
3312522,2221
3312523,2222
3312524,2219
3312525,2216
3312526,2217
3312527,2218
3312528,2216
3312529,2215
3312530,2205
3312531,2204
3312532,2202
3312533,2199
3312534,2192
3312535,2199
3312536,2203
3312537,2207
3312538,2207
3312539,2203
3312540,2201
3312541,2203
3312542,2204
3312543,2200
3312544,2201
3312545,2199
3312546,2191
3312547,2191
3312548,2199
3312549,2205
3312550,2206
3312551,2206
3312552,2203
3312553,2200
3312554,2186
3312555,2186
3312556,2189
3312557,2188
3312558,2183
3312559,2175
3312560,2175
3312561,2187
3312562,2198
3312563,2202
3312564,2199
3312565,2184
3312566,2184
3312567,2186
3312568,2188
3312569,2188
3312570,2190
3312571,2189
3312572,2189
3312573,2186
3312574,2185
3312575,2185
3312576,2187
3312577,2189
3312578,2186
3312579,2176
3312580,2184
3312581,2186
3312582,2189
3312583,2191
3312584,2188
3312585,2187
3312586,2186
3312587,2184
3312588,2185
3312589,2185
3312590,2184
3312591,2184
3312592,2184
3312593,2186
3312594,2186
3312595,2187
3312596,2186
3312597,2188
3312598,2188
3312599,2183
3312600,2173
3312601,2184
3312602,2186
3312603,2190
3312604,2171
3312605,2157
3312606,2172
3312607,2168
3312608,2168
3312609,2168
3312610,2171
3312611,2173
3312612,2172
3312613,2169
3312614,2168
3312615,2168
3312616,2170
3312617,2169
3312618,2167
3312619,2158
3312620,2167
3312621,2158
3312622,2158
3312623,2156
3312624,2154
3312625,2155
3312626,2155
3312627,2152
3312628,2151
3312629,2154
3312630,2155
3312631,2156
3312632,2154
3312633,2153
3312634,2142
3312635,2141
3312636,2142
3312637,2141
3312638,2138
3312639,2135
3312640,2124
3312641,2110
3312642,2107
3312643,2120
3312644,2122
3312645,2137
3312646,2139
3312647,2137
3312648,2136
3312649,2126
3312650,2125
3312651,2121
3312652,2121
3312653,2122
3312654,2122
3312655,2122
3312656,2121
3312657,2121
3312658,2120
3312659,2112
3312660,2110
3312661,2109
3312662,2109
3312663,2111
3312664,2110
3312665,2109
3312666,2110
3312667,2117
3312668,2110
3312669,2109
3312670,2119
3312671,2109
3312672,2109
3312673,2109
3312674,2108
3312675,2107
3312676,2110
3312677,2111
3312678,2112
3312679,2120
3312680,2121
3312681,2121
3312682,2121
3312683,2122
3312684,2123
3312685,2121
3312686,2120
3312687,2119
3312688,2109
3312689,2107
3312690,2110
3312691,2110
3312692,2109
3312693,2108
3312694,2107
3312695,2106
3312696,2108
3312697,2108
3312698,2109
3312699,2110
3312700,2110
3312701,2107
3312702,2108
3312703,2107
3312704,2105
3312705,2104
3312706,2104
3312707,2104
3312708,2105
3312709,2104
3312710,2105
3312711,2107
3312712,2107
3312713,2108
3312714,2107
3312715,2110
3312716,2107
3312717,2107
3312718,2106
3312719,2107
3312720,2105
3312721,2104
3312722,2106
3312723,2105
3312724,2106
3312725,2104
3312726,2103
3312727,2103
3312728,2104
3312729,2104
3312730,2105
3312731,2105
3312732,2104
3312733,2104
3312734,2103
3312735,2102
3312736,2103
3312737,2095
3312738,2093
3312739,2095
3312740,2095
3312741,2093
3312742,2092
3312743,2093
3312744,2094
3312745,2092
3312746,2094
3312747,2093
3312748,2092
3312749,2091
3312750,2091
3312751,2091
3312752,2090
3312753,2090
3312754,2091
3312755,2091
3312756,2091
3312757,2090
3312758,2091
3312759,2090
3312760,2089
3312761,2088
3312762,2088
3312763,2087
3312764,2078
3312765,2078
3312766,2078
3312767,2078
3312768,2076
3312769,2077
3312770,2077
3312771,2076
3312772,2074
3312773,2073
3312774,2072
3312775,2074
3312776,2074
3312777,2075
3312778,2074
3312779,2064
3312780,2064
3312781,2072
3312782,2064
3312783,2063
3312784,2064
3312785,2064
3312786,2063
3312787,2062
3312788,2064
3312789,2064
3312790,2064
3312791,2064
3312792,2064
3312793,2064
3312794,2064
3312795,2064
3312796,2064
3312797,2064
3312798,2073
3312799,2074
3312800,2077
3312801,2078
3312802,2080
3312803,2088
3312804,2089
3312805,2091
3312806,2092
3312807,2093
3312808,2092
3312809,2092
3312810,2092
3312811,2090
3312812,2091
3312813,2091
3312814,2091
3312815,2088
3312816,2088
3312817,2087
3312818,2087
3312819,2089
3312820,2090
3312821,2092
3312822,2093
3312823,2094
3312824,2104
3312825,2106
3312826,2109
3312827,2110
3312828,2110
3312829,2111
3312830,2110
3312831,2119
3312832,2119
3312833,2111
3312834,2120
3312835,2122
3312836,2123
3312837,2123
3312838,2123
3312839,2136
3312840,2141
3312841,2157
3312842,2175
3312843,2187
3312844,2186
3312845,2183
3312846,2156
3312847,2137
3312848,2124
3312849,2121
3312850,2110
3312851,2105
3312852,2107
3312853,2119
3312854,2126
3312855,2140
3312856,2151
3312857,2156
3312858,2157
3312859,2155
3312860,2154
3312861,2152
3312862,2142
3312863,2138
3312864,2136
3312865,2126
3312866,2123
3312867,2122
3312868,2125
3312869,2136
3312870,2140
3312871,2142
3312872,2151
3312873,2152
3312874,2154
3312875,2156
3312876,2157
3312877,2158
3312878,2167
3312879,2169
3312880,2173
3312881,2184
3312882,2185
3312883,2183
3312884,2183
3312885,2172
3312886,2172
3312887,2168
3312888,2168
3312889,2169
3312890,2174
3312891,2188
3312892,2207
3312893,2233
3312894,2252
3312895,2264
3312896,2263
3312897,2248
3312898,2217
3312899,2188
3312900,2170
3312901,2159
3312902,2151
3312903,2141
3312904,2138
3312905,2126
3312906,2124
3312907,2126
3312908,2141
3312909,2158
3312910,2188
3312911,2233
3312912,2265
3312913,2281
3312914,2284
3312915,2280
3312916,2254
3312917,2233
3312918,2220
3312919,2204
3312920,2198
3312921,2187
3312922,2187
3312923,2188
3312924,2184
3312925,2186
3312926,2187
3312927,2191
3312928,2200
3312929,2206
3312930,2217
3312931,2231
3312932,2239
3312933,2252
3312934,2264
3312935,2264
3312936,2253
3312937,2239
3312938,2223
3312939,2221
3312940,2218
3312941,2207
3312942,2199
3312943,2188
3312944,2184
3312945,2183
3312946,2185
3312947,2185
3312948,2185
3312949,2184
3312950,2187
3312951,2202
3312952,2207
3312953,2216
3312954,2217
3312955,2217
3312956,2218
3312957,2222
3312958,2232
3312959,2232
3312960,2231
3312961,2233
3312962,2232
3312963,2221
3312964,2219
3312965,2219
3312966,2223
3312967,2233
3312968,2232
3312969,2223
3312970,2231
3312971,2235
3312972,2248
3312973,2255
3312974,2254
3312975,2264
3312976,2264
3312977,2248
3312978,2220
3312979,2203
3312980,2202
3312981,2216
3312982,2237
3312983,2264
3312984,2279
3312985,2284
3312986,2262
3312987,2221
3312988,2202
3312989,2206
3312990,2216
3312991,2219
3312992,2238
3312993,2250
3312994,2255
3312995,2268
3312996,2267
3312997,2250
3312998,2236
3312999,2231
3313000,2231
3313001,2222
3313002,2222
3313003,2221
3313004,2221
3313005,2222
3313006,2232
3313007,2233
3313008,2235
3313009,2237
3313010,2236
3313011,2246
3313012,2250
3313013,2253
3313014,2255
3313015,2264
3313016,2267
3313017,2267
3313018,2266
3313019,2265
3313020,2264
3313021,2264
3313022,2256
3313023,2263
3313024,2264
3313025,2264
3313026,2264
3313027,2264
3313028,2264
3313029,2264
3313030,2263
3313031,2263
3313032,2253
3313033,2254
3313034,2252
3313035,2253
3313036,2254
3313037,2254
3313038,2254
3313039,2255
3313040,2263
3313041,2265
3313042,2266
3313043,2268
3313044,2268
3313045,2269
3313046,2280
3313047,2280
3313048,2281
3313049,2282
3313050,2284
3313051,2282
3313052,2282
3313053,2282
3313054,2278
3313055,2270
3313056,2267
3313057,2265
3313058,2266
3313059,2264
3313060,2265
3313061,2269
3313062,2281
3313063,2286
3313064,2296
3313065,2299
3313066,2298
3313067,2286
3313068,2279
3313069,2268
3313070,2256
3313071,2252
3313072,2250
3313073,2252
3313074,2251
3313075,2251
3313076,2254
3313077,2263
3313078,2266
3313079,2266
3313080,2267
3313081,2268
3313082,2268
3313083,2269
3313084,2268
3313085,2269
3313086,2270
3313087,2266
3313088,2267
3313089,2268
3313090,2268
3313091,2269
3313092,2271
3313093,2279
3313094,2280
3313095,2280
3313096,2281
3313097,2283
3313098,2283
3313099,2283
3313100,2283
3313101,2282
3313102,2284
3313103,2287
3313104,2295
3313105,2295
3313106,2288
3313107,2285
3313108,2295
3313109,2285
3313110,2285
3313111,2285
3313112,2284
3313113,2284
3313114,2284
3313115,2284
3313116,2284
3313117,2284
3313118,2283
3313119,2284
3313120,2283
3313121,2284
3313122,2283
3313123,2285
3313124,2286
3313125,2296
3313126,2296
3313127,2301
3313128,2319
3313129,2344
3313130,2365
3313131,2376
3313132,2378
3313133,2363
3313134,2344
3313135,2316
3313136,2299
3313137,2285
3313138,2271
3313139,2264
3313140,2252
3313141,2266
3313142,2284
3313143,2301
3313144,2317
3313145,2329
3313146,2331
3313147,2334
3313148,2335
3313149,2345
3313150,2345
3313151,2334
3313152,2329
3313153,2315
3313154,2300
3313155,2285
3313156,2267
3313157,2249
3313158,2238
3313159,2240
3313160,2252
3313161,2264
3313162,2267
3313163,2282
3313164,2294
3313165,2299
3313166,2301
3313167,2298
3313168,2284
3313169,2281
3313170,2271
3313171,2264
3313172,2251
3313173,2253
3313174,2267
3313175,2286
3313176,2312
3313177,2317
3313178,2329
3313179,2318
3313180,2300
3313181,2282
3313182,2269
3313183,2268
3313184,2266
3313185,2266
3313186,2264
3313187,2264
3313188,2267
3313189,2280
3313190,2285
3313191,2287
3313192,2285
3313193,2284
3313194,2279
3313195,2271
3313196,2281
3313197,2300
3313198,2344
3313199,2378
3313200,2410
3313201,2429
3313202,2425
3313203,2396
3313204,2351
3313205,2312
3313206,2280
3313207,2255
3313208,2236
3313209,2231
3313210,2221
3313211,2219
3313212,2220
3313213,2231
3313214,2236
3313215,2248
3313216,2251
3313217,2251
3313218,2263
3313219,2266
3313220,2269
3313221,2269
3313222,2269
3313223,2271
3313224,2271
3313225,2269
3313226,2270
3313227,2271
3313228,2270
3313229,2280
3313230,2282
3313231,2282
3313232,2284
3313233,2285
3313234,2285
3313235,2296
3313236,2295
3313237,2300
3313238,2300
3313239,2302
3313240,2314
3313241,2327
3313242,2331
3313243,2333
3313244,2343
3313245,2344
3313246,2345
3313247,2347
3313248,2343
3313249,2332
3313250,2320
3313251,2300
3313252,2284
3313253,2283
3313254,2280
3313255,2270
3313256,2281
3313257,2285
3313258,2286
3313259,2286
3313260,2288
3313261,2296
3313262,2295
3313263,2293
3313264,2283
3313265,2283
3313266,2283
3313267,2280
3313268,2280
3313269,2281
3313270,2281
3313271,2282
3313272,2286
3313273,2287
3313274,2296
3313275,2299
3313276,2300
3313277,2299
3313278,2301
3313279,2302
3313280,2301
3313281,2299
3313282,2301
3313283,2313
3313284,2327
3313285,2334
3313286,2350
3313287,2375
3313288,2380
3313289,2375
3313290,2360
3313291,2331
3313292,2312
3313293,2297
3313294,2286
3313295,2283
3313296,2267
3313297,2254
3313298,2252
3313299,2264
3313300,2268
3313301,2280
3313302,2282
3313303,2286
3313304,2288
3313305,2288
3313306,2295
3313307,2295
3313308,2295
3313309,2287
3313310,2285
3313311,2288
3313312,2287
3313313,2287
3313314,2298
3313315,2299
3313316,2301
3313317,2300
3313318,2301
3313319,2300
3313320,2301
3313321,2300
3313322,2301
3313323,2304
3313324,2312
3313325,2316
3313326,2314
3313327,2315
3313328,2316
3313329,2317
3313330,2316
3313331,2314
3313332,2316
3313333,2316
3313334,2317
3313335,2314
3313336,2314
3313337,2314
3313338,2314
3313339,2315
3313340,2315
3313341,2314
3313342,2317
3313343,2315
3313344,2316
3313345,2316
3313346,2312
3313347,2312
3313348,2313
3313349,2313
3313350,2315
3313351,2316
3313352,2316
3313353,2315
3313354,2314
3313355,2312
3313356,2311
3313357,2312
3313358,2313
3313359,2313
3313360,2312
3313361,2312
3313362,2312
3313363,2312
3313364,2313
3313365,2312
3313366,2313
3313367,2315
3313368,2316
3313369,2316
3313370,2315
3313371,2316
3313372,2319
3313373,2317
3313374,2318
3313375,2318
3313376,2331
3313377,2334
3313378,2334
3313379,2335
3313380,2343
3313381,2344
3313382,2345
3313383,2346
3313384,2344
3313385,2344
3313386,2334
3313387,2331
3313388,2327
3313389,2316
3313390,2312
3313391,2299
3313392,2296
3313393,2297
3313394,2296
3313395,2297
3313396,2299
3313397,2302
3313398,2301
3313399,2311
3313400,2328
3313401,2352
3313402,2391
3313403,2414
3313404,2428
3313405,2425
3313406,2397
3313407,2378
3313408,2358
3313409,2335
3313410,2319
3313411,2302
3313412,2283
3313413,2263
3313414,2250
3313415,2255
3313416,2254
3313417,2266
3313418,2280
3313419,2286
3313420,2295
3313421,2294
3313422,2295
3313423,2296
3313424,2299
3313425,2298
3313426,2296
3313427,2296
3313428,2288
3313429,2286
3313430,2296
3313431,2298
3313432,2300
3313433,2299
3313434,2287
3313435,2283
3313436,2279
3313437,2269
3313438,2269
3313439,2269
3313440,2269
3313441,2266
3313442,2256
3313443,2255
3313444,2264
3313445,2266
3313446,2267
3313447,2268
3313448,2268
3313449,2271
3313450,2281
3313451,2287
3313452,2298
3313453,2312
3313454,2314
3313455,2327
3313456,2328
3313457,2333
3313458,2346
3313459,2377
3313460,2411
3313461,2428
3313462,2426
3313463,2399
3313464,2366
3313465,2333
3313466,2303
3313467,2296
3313468,2295
3313469,2299
3313470,2314
3313471,2318
3313472,2316
3313473,2296
3313474,2255
3313475,2232
3313476,2217
3313477,2218
3313478,2222
3313479,2233
3313480,2249
3313481,2265
3313482,2280
3313483,2298
3313484,2319
3313485,2350
3313486,2392
3313487,2427
3313488,2444
3313489,2445
3313490,2430
3313491,2394
3313492,2336
3313493,2286
3313494,2252
3313495,2235
3313496,2233
3313497,2224
3313498,2207
3313499,2215
3313500,2247
3313501,2311
3313502,2366
3313503,2408
3313504,2408
3313505,2367
3313506,2315
3313507,2269
3313508,2239
3313509,2223
3313510,2218
3313511,2205
3313512,2191
3313513,2204
3313514,2222
3313515,2236
3313516,2248
3313517,2266
3313518,2284
3313519,2287
3313520,2296
3313521,2285
3313522,2279
3313523,2266
3313524,2254
3313525,2250
3313526,2248
3313527,2249
3313528,2238
3313529,2239
3313530,2238
3313531,2250
3313532,2251
3313533,2255
3313534,2266
3313535,2266
3313536,2264
3313537,2263
3313538,2256
3313539,2264
3313540,2256
3313541,2264
3313542,2267
3313543,2269
3313544,2270
3313545,2280
3313546,2282
3313547,2284
3313548,2283
3313549,2285
3313550,2287
3313551,2287
3313552,2299
3313553,2301
3313554,2312
3313555,2312
3313556,2315
3313557,2315
3313558,2317
3313559,2326
3313560,2328
3313561,2329
3313562,2331
3313563,2345
3313564,2349
3313565,2344
3313566,2332
3313567,2328
3313568,2317
3313569,2318
3313570,2314
3313571,2310
3313572,2301
3313573,2297
3313574,2295
3313575,2286
3313576,2270
3313577,2268
3313578,2282
3313579,2328
3313580,2378
3313581,2413
3313582,2427
3313583,2412
3313584,2377
3313585,2318
3313586,2279
3313587,2250
3313588,2235
3313589,2224
3313590,2218
3313591,2203
3313592,2199
3313593,2205
3313594,2221
3313595,2236
3313596,2248
3313597,2253
3313598,2263
3313599,2268
3313600,2272
3313601,2281
3313602,2280
3313603,2280
3313604,2279
3313605,2271
3313606,2268
3313607,2267
3313608,2267
3313609,2255
3313610,2255
3313611,2268
3313612,2294
3313613,2331
3313614,2379
3313615,2412
3313616,2426
3313617,2411
3313618,2376
3313619,2331
3313620,2302
3313621,2297
3313622,2296
3313623,2295
3313624,2279
3313625,2264
3313626,2249
3313627,2253
3313628,2264
3313629,2265
3313630,2265
3313631,2263
3313632,2255
3313633,2250
3313634,2221
3313635,2201
3313636,2202
3313637,2221
3313638,2254
3313639,2282
3313640,2296
3313641,2300
3313642,2287
3313643,2272
3313644,2266
3313645,2265
3313646,2265
3313647,2266
3313648,2280
3313649,2287
3313650,2301
3313651,2316
3313652,2328
3313653,2331
3313654,2348
3313655,2364
3313656,2378
3313657,2394
3313658,2409
3313659,2427
3313660,2439
3313661,2427
3313662,2395
3313663,2348
3313664,2285
3313665,2236
3313666,2207
3313667,2189
3313668,2168
3313669,2152
3313670,2157
3313671,2198
3313672,2251
3313673,2295
3313674,2315
3313675,2313
3313676,2281
3313677,2251
3313678,2232
3313679,2220
3313680,2218
3313681,2206
3313682,2214
3313683,2217
3313684,2231
3313685,2249
3313686,2254
3313687,2255
3313688,2264
3313689,2264
3313690,2264
3313691,2264
3313692,2282
3313693,2301
3313694,2328
3313695,2342
3313696,2346
3313697,2349
3313698,2347
3313699,2342
3313700,2335
3313701,2345
3313702,2347
3313703,2332
3313704,2302
3313705,2264
3313706,2233
3313707,2216
3313708,2207
3313709,2218
3313710,2232
3313711,2234
3313712,2237
3313713,2252
3313714,2270
3313715,2282
3313716,2285
3313717,2287
3313718,2297
3313719,2298
3313720,2297
3313721,2295
3313722,2298
3313723,2303
3313724,2312
3313725,2304
3313726,2299
3313727,2295
3313728,2285
3313729,2286
3313730,2288
3313731,2286
3313732,2282
3313733,2279
3313734,2270
3313735,2266
3313736,2250
3313737,2236
3313738,2234
3313739,2234
3313740,2236
3313741,2238
3313742,2238
3313743,2248
3313744,2248
3313745,2232
3313746,2231
3313747,2248
3313748,2281
3313749,2312
3313750,2319
3313751,2318
3313752,2296
3313753,2265
3313754,2250
3313755,2253
3313756,2265
3313757,2270
3313758,2282
3313759,2287
3313760,2297
3313761,2299
3313762,2288
3313763,2282
3313764,2264
3313765,2249
3313766,2240
3313767,2224
3313768,2216
3313769,2205
3313770,2220
3313771,2271
3313772,2332
3313773,2366
3313774,2391
3313775,2376
3313776,2343
3313777,2312
3313778,2295
3313779,2283
3313780,2264
3313781,2239
3313782,2238
3313783,2248
3313784,2265
3313785,2281
3313786,2287
3313787,2286
3313788,2284
3313789,2268
3313790,2262
3313791,2250
3313792,2249
3313793,2250
3313794,2263
3313795,2280
3313796,2280
3313797,2280
3313798,2284
3313799,2285
3313800,2285
3313801,2284
3313802,2285
3313803,2284
3313804,2283
3313805,2284
3313806,2271
3313807,2251
3313808,2238
3313809,2249
3313810,2266
3313811,2280
3313812,2286
3313813,2312
3313814,2330
3313815,2349
3313816,2377
3313817,2400
3313818,2416
3313819,2416
3313820,2394
3313821,2344
3313822,2282
3313823,2238
3313824,2216
3313825,2199
3313826,2173
3313827,2156
3313828,2157
3313829,2172
3313830,2191
3313831,2206
3313832,2219
3313833,2233
3313834,2248
3313835,2253
3313836,2255
3313837,2256
3313838,2269
3313839,2285
3313840,2302
3313841,2316
3313842,2316
3313843,2303
3313844,2281
3313845,2255
3313846,2249
3313847,2267
3313848,2296
3313849,2313
3313850,2334
3313851,2361
3313852,2376
3313853,2376
3313854,2360
3313855,2331
3313856,2302
3313857,2284
3313858,2267
3313859,2230
3313860,2201
3313861,2190
3313862,2191
3313863,2205
3313864,2221
3313865,2232
3313866,2236
3313867,2237
3313868,2238
3313869,2248
3313870,2254
3313871,2265
3313872,2265
3313873,2266
3313874,2256
3313875,2253
3313876,2255
3313877,2263
3313878,2264
3313879,2264
3313880,2255
3313881,2251
3313882,2239
3313883,2234
3313884,2232
3313885,2232
3313886,2235
3313887,2239
3313888,2247
3313889,2253
3313890,2266
3313891,2271
3313892,2280
3313893,2281
3313894,2281
3313895,2279
3313896,2271
3313897,2271
3313898,2281
3313899,2280
3313900,2284
3313901,2285
3313902,2283
3313903,2270
3313904,2266
3313905,2264
3313906,2263
3313907,2255
3313908,2264
3313909,2256
3313910,2252
3313911,2247
3313912,2254
3313913,2282
3313914,2314
3313915,2330
3313916,2330
3313917,2316
3313918,2285
3313919,2263
3313920,2238
3313921,2237
3313922,2232
3313923,2221
3313924,2231
3313925,2234
3313926,2247
3313927,2255
3313928,2280
3313929,2297
3313930,2315
3313931,2318
3313932,2317
3313933,2311
3313934,2297
3313935,2296
3313936,2297
3313937,2302
3313938,2316
3313939,2326
3313940,2327
3313941,2329
3313942,2328
3313943,2319
3313944,2315
3313945,2296
3313946,2282
3313947,2265
3313948,2251
3313949,2248
3313950,2230
3313951,2218
3313952,2203
3313953,2200
3313954,2205
3313955,2208
3313956,2219
3313957,2231
3313958,2237
3313959,2265
3313960,2287
3313961,2312
3313962,2316
3313963,2319
3313964,2315
3313965,2312
3313966,2313
3313967,2316
3313968,2312
3313969,2296
3313970,2284
3313971,2282
3313972,2281
3313973,2280
3313974,2282
3313975,2269
3313976,2239
3313977,2220
3313978,2205
3313979,2188
3313980,2186
3313981,2184
3313982,2184
3313983,2185
3313984,2190
3313985,2203
3313986,2215
3313987,2220
3313988,2220
3313989,2223
3313990,2232
3313991,2232
3313992,2234
3313993,2238
3313994,2247
3313995,2248
3313996,2251
3313997,2252
3313998,2253
3313999,2250
3314000,2249
3314001,2255
3314002,2285
3314003,2315
3314004,2333
3314005,2343
3314006,2317
3314007,2281
3314008,2249
3314009,2231
3314010,2217
3314011,2204
3314012,2199
3314013,2200
3314014,2203
3314015,2218
3314016,2232
3314017,2236
3314018,2238
3314019,2237
3314020,2236
3314021,2237
3314022,2251
3314023,2271
3314024,2301
3314025,2334
3314026,2365
3314027,2394
3314028,2425
3314029,2442
3314030,2439
3314031,2428
3314032,2416
3314033,2399
3314034,2378
3314035,2327
3314036,2281
3314037,2247
3314038,2221
3314039,2203
3314040,2192
3314041,2159
3314042,2125
3314043,2092
3314044,2086
3314045,2094
3314046,2109
3314047,2124
3314048,2137
3314049,2153
3314050,2159
3314051,2170
3314052,2173
3314053,2185
3314054,2188
3314055,2190
3314056,2190
3314057,2190
3314058,2200
3314059,2200
3314060,2200
3314061,2200
3314062,2201
3314063,2204
3314064,2203
3314065,2205
3314066,2208
3314067,2216
3314068,2217
3314069,2219
3314070,2219
3314071,2221
3314072,2231
3314073,2232
3314074,2232
3314075,2230
3314076,2232
3314077,2232
3314078,2232
3314079,2224
3314080,2223
3314081,2232
3314082,2231
3314083,2232
3314084,2232
3314085,2233
3314086,2232
3314087,2234
3314088,2236
3314089,2235
3314090,2237
3314091,2249
3314092,2252
3314093,2252
3314094,2264
3314095,2266
3314096,2271
3314097,2285
3314098,2285
3314099,2271
3314100,2250
3314101,2231
3314102,2216
3314103,2200
3314104,2189
3314105,2174
3314106,2168
3314107,2160
3314108,2171
3314109,2182
3314110,2184
3314111,2187
3314112,2191
3314113,2200
3314114,2202
3314115,2205
3314116,2206
3314117,2207
3314118,2207
3314119,2205
3314120,2207
3314121,2206
3314122,2207
3314123,2206
3314124,2207
3314125,2205
3314126,2205
3314127,2203
3314128,2203
3314129,2205
3314130,2206
3314131,2207
3314132,2206
3314133,2208
3314134,2207
3314135,2214
3314136,2208
3314137,2216
3314138,2216
3314139,2218
3314140,2215
3314141,2215
3314142,2215
3314143,2204
3314144,2204
3314145,2205
3314146,2204
3314147,2206
3314148,2206
3314149,2207
3314150,2217
3314151,2221
3314152,2235
3314153,2247
3314154,2252
3314155,2264
3314156,2269
3314157,2280
3314158,2281
3314159,2282
3314160,2284
3314161,2279
3314162,2266
3314163,2254
3314164,2236
3314165,2208
3314166,2183
3314167,2156
3314168,2143
3314169,2142
3314170,2154
3314171,2169
3314172,2183
3314173,2189
3314174,2204
3314175,2219
3314176,2220
3314177,2219
3314178,2206
3314179,2200
3314180,2187
3314181,2185
3314182,2170
3314183,2158
3314184,2156
3314185,2157
3314186,2168
3314187,2201
3314188,2217
3314189,2217
3314190,2206
3314191,2191
3314192,2184
3314193,2174
3314194,2175
3314195,2184
3314196,2173
3314197,2173
3314198,2176
3314199,2186
3314200,2190
3314201,2200
3314202,2203
3314203,2205
3314204,2207
3314205,2208
3314206,2208
3314207,2206
3314208,2206
3314209,2206
3314210,2206
3314211,2205
3314212,2214
3314213,2219
3314214,2222
3314215,2221
3314216,2221
3314217,2219
3314218,2217
3314219,2216
3314220,2216
3314221,2217
3314222,2215
3314223,2205
3314224,2203
3314225,2201
3314226,2190
3314227,2184
3314228,2184
3314229,2186
3314230,2200
3314231,2205
3314232,2207
3314233,2216
3314234,2216
3314235,2218
3314236,2218
3314237,2217
3314238,2217
3314239,2216
3314240,2220
3314241,2230
3314242,2232
3314243,2233
3314244,2236
3314245,2238
3314246,2239
3314247,2239
3314248,2238
3314249,2237
3314250,2236
3314251,2233
3314252,2231
3314253,2234
3314254,2247
3314255,2252
3314256,2254
3314257,2249
3314258,2224
3314259,2206
3314260,2191
3314261,2185
3314262,2171
3314263,2168
3314264,2153
3314265,2140
3314266,2141
3314267,2152
3314268,2157
3314269,2159
3314270,2168
3314271,2170
3314272,2172
3314273,2175
3314274,2184
3314275,2184
3314276,2173
3314277,2185
3314278,2190
3314279,2188
3314280,2190
3314281,2192
3314282,2199
3314283,2200
3314284,2199
3314285,2201
3314286,2203
3314287,2203
3314288,2206
3314289,2206
3314290,2207
3314291,2206
3314292,2204
3314293,2205
3314294,2205
3314295,2206
3314296,2205
3314297,2215
3314298,2217
3314299,2222
3314300,2238
3314301,2248
3314302,2251
3314303,2252
3314304,2252
3314305,2253
3314306,2254
3314307,2264
3314308,2268
3314309,2284
3314310,2313
3314311,2347
3314312,2381
3314313,2394
3314314,2380
3314315,2344
3314316,2296
3314317,2251
3314318,2235
3314319,2218
3314320,2201
3314321,2185
3314322,2168
3314323,2169
3314324,2184
3314325,2198
3314326,2199
3314327,2188
3314328,2174
3314329,2169
3314330,2167
3314331,2168
3314332,2167
3314333,2157
3314334,2153
3314335,2155
3314336,2158
3314337,2169
3314338,2172
3314339,2171
3314340,2170
3314341,2184
3314342,2199
3314343,2216
3314344,2218
3314345,2218
3314346,2222
3314347,2239
3314348,2266
3314349,2287
3314350,2298
3314351,2298
3314352,2286
3314353,2264
3314354,2233
3314355,2208
3314356,2190
3314357,2183
3314358,2171
3314359,2172
3314360,2185
3314361,2215
3314362,2238
3314363,2265
3314364,2267
3314365,2253
3314366,2222
3314367,2201
3314368,2186
3314369,2183
3314370,2186
3314371,2188
3314372,2200
3314373,2206
3314374,2222
3314375,2238
3314376,2249
3314377,2250
3314378,2248
3314379,2234
3314380,2223
3314381,2217
3314382,2207
3314383,2203
3314384,2202
3314385,2190
3314386,2190
3314387,2204
3314388,2223
3314389,2267
3314390,2299
3314391,2315
3314392,2315
3314393,2297
3314394,2268
3314395,2247
3314396,2217
3314397,2201
3314398,2191
3314399,2174
3314400,2167
3314401,2156
3314402,2157
3314403,2172
3314404,2188
3314405,2203
3314406,2222
3314407,2251
3314408,2271
3314409,2286
3314410,2296
3314411,2286
3314412,2279
3314413,2265
3314414,2247
3314415,2234
3314416,2220
3314417,2218
3314418,2218
3314419,2218
3314420,2208
3314421,2204
3314422,2207
3314423,2215
3314424,2219
3314425,2231
3314426,2233
3314427,2232
3314428,2224
3314429,2221
3314430,2219
3314431,2216
3314432,2208
3314433,2206
3314434,2205
3314435,2202
3314436,2200
3314437,2191
3314438,2201
3314439,2201
3314440,2204
3314441,2215
3314442,2218
3314443,2223
3314444,2233
3314445,2235
3314446,2237
3314447,2238
3314448,2250
3314449,2252
3314450,2263
3314451,2265
3314452,2264
3314453,2265
3314454,2264
3314455,2252
3314456,2248
3314457,2236
3314458,2233
3314459,2222
3314460,2224
3314461,2224
3314462,2218
3314463,2206
3314464,2202
3314465,2204
3314466,2219
3314467,2224
3314468,2232
3314469,2235
3314470,2251
3314471,2270
3314472,2286
3314473,2297
3314474,2295
3314475,2279
3314476,2253
3314477,2249
3314478,2249
3314479,2250
3314480,2250
3314481,2235
3314482,2232
3314483,2233
3314484,2238
3314485,2236
3314486,2232
3314487,2222
3314488,2230
3314489,2221
3314490,2219
3314491,2218
3314492,2219
3314493,2236
3314494,2266
3314495,2295
3314496,2312
3314497,2316
3314498,2297
3314499,2266
3314500,2237
3314501,2223
3314502,2217
3314503,2205
3314504,2184
3314505,2158
3314506,2151
3314507,2153
3314508,2170
3314509,2186
3314510,2188
3314511,2192
3314512,2200
3314513,2202
3314514,2203
3314515,2207
3314516,2217
3314517,2218
3314518,2218
3314519,2218
3314520,2217
3314521,2219
3314522,2222
3314523,2233
3314524,2238
3314525,2249
3314526,2250
3314527,2251
3314528,2250
3314529,2248
3314530,2239
3314531,2236
3314532,2235
3314533,2235
3314534,2232
3314535,2220
3314536,2218
3314537,2217
3314538,2217
3314539,2215
3314540,2219
3314541,2219
3314542,2216
3314543,2218
3314544,2230
3314545,2236
3314546,2264
3314547,2278
3314548,2281
3314549,2271
3314550,2256
3314551,2249
3314552,2237
3314553,2235
3314554,2236
3314555,2237
3314556,2234
3314557,2232
3314558,2231
3314559,2231
3314560,2233
3314561,2233
3314562,2232
3314563,2232
3314564,2236
3314565,2232
3314566,2231
3314567,2239
3314568,2265
3314569,2297
3314570,2315
3314571,2328
3314572,2314
3314573,2285
3314574,2263
3314575,2237
3314576,2223
3314577,2218
3314578,2202
3314579,2187
3314580,2184
3314581,2189
3314582,2201
3314583,2207
3314584,2207
3314585,2203
3314586,2205
3314587,2202
3314588,2200
3314589,2201
3314590,2207
3314591,2218
3314592,2222
3314593,2232
3314594,2232
3314595,2222
3314596,2220
3314597,2217
3314598,2217
3314599,2215
3314600,2215
3314601,2205
3314602,2220
3314603,2238
3314604,2266
3314605,2296
3314606,2328
3314607,2350
3314608,2366
3314609,2375
3314610,2352
3314611,2331
3314612,2319
3314613,2318
3314614,2318
3314615,2315
3314616,2297
3314617,2266
3314618,2237
3314619,2220
3314620,2218
3314621,2217
3314622,2216
3314623,2203
3314624,2184
3314625,2170
3314626,2159
3314627,2158
3314628,2186
3314629,2232
3314630,2280
3314631,2301
3314632,2303
3314633,2280
3314634,2247
3314635,2217
3314636,2190
3314637,2184
3314638,2171
3314639,2153
3314640,2137
3314641,2136
3314642,2142
3314643,2159
3314644,2172
3314645,2186
3314646,2190
3314647,2200
3314648,2204
3314649,2208
3314650,2217
3314651,2222
3314652,2231
3314653,2236
3314654,2238
3314655,2237
3314656,2236
3314657,2230
3314658,2220
3314659,2220
3314660,2233
3314661,2251
3314662,2265
3314663,2268
3314664,2266
3314665,2254
3314666,2253
3314667,2253
3314668,2252
3314669,2251
3314670,2248
3314671,2235
3314672,2232
3314673,2231
3314674,2232
3314675,2233
3314676,2248
3314677,2270
3314678,2311
3314679,2335
3314680,2359
3314681,2359
3314682,2347
3314683,2346
3314684,2345
3314685,2345
3314686,2346
3314687,2343
3314688,2317
3314689,2281
3314690,2256
3314691,2263
3314692,2281
3314693,2288
3314694,2303
3314695,2303
3314696,2284
3314697,2252
3314698,2223
3314699,2207
3314700,2201
3314701,2188
3314702,2172
3314703,2158
3314704,2153
3314705,2140
3314706,2138
3314707,2141
3314708,2172
3314709,2206
3314710,2234
3314711,2239
3314712,2238
3314713,2222
3314714,2216
3314715,2207
3314716,2218
3314717,2221
3314718,2219
3314719,2217
3314720,2216
3314721,2218
3314722,2232
3314723,2250
3314724,2280
3314725,2286
3314726,2300
3314727,2316
3314728,2318
3314729,2317
3314730,2313
3314731,2299
3314732,2281
3314733,2267
3314734,2249
3314735,2223
3314736,2202
3314737,2174
3314738,2168
3314739,2185
3314740,2220
3314741,2249
3314742,2264
3314743,2267
3314744,2269
3314745,2269
3314746,2270
3314747,2267
3314748,2265
3314749,2254
3314750,2250
3314751,2239
3314752,2231
3314753,2233
3314754,2249
3314755,2280
3314756,2312
3314757,2319
3314758,2327
3314759,2297
3314760,2264
3314761,2238
3314762,2233
3314763,2233
3314764,2219
3314765,2203
3314766,2202
3314767,2205
3314768,2235
3314769,2270
3314770,2319
3314771,2348
3314772,2348
3314773,2347
3314774,2334
3314775,2327
3314776,2302
3314777,2284
3314778,2264
3314779,2249
3314780,2232
3314781,2218
3314782,2206
3314783,2183
3314784,2170
3314785,2172
3314786,2199
3314787,2224
3314788,2250
3314789,2253
3314790,2263
3314791,2250
3314792,2232
3314793,2216
3314794,2207
3314795,2215
3314796,2216
3314797,2215
3314798,2214
3314799,2218
3314800,2223
3314801,2237
3314802,2252
3314803,2265
3314804,2268
3314805,2267
3314806,2264
3314807,2251
3314808,2238
3314809,2232
3314810,2218
3314811,2205
3314812,2202
3314813,2202
3314814,2205
3314815,2206
3314816,2206
3314817,2205
3314818,2203
3314819,2207
3314820,2218
3314821,2216
3314822,2231
3314823,2266
3314824,2327
3314825,2378
3314826,2398
3314827,2400
3314828,2365
3314829,2315
3314830,2280
3314831,2271
3314832,2295
3314833,2300
3314834,2287
3314835,2272
3314836,2265
3314837,2266
3314838,2254
3314839,2247
3314840,2234
3314841,2221
3314842,2206
3314843,2188
3314844,2174
3314845,2169
3314846,2169
3314847,2191
3314848,2232
3314849,2266
3314850,2298
3314851,2318
3314852,2329
3314853,2332
3314854,2330
3314855,2330
3314856,2327
3314857,2319
3314858,2312
3314859,2294
3314860,2266
3314861,2238
3314862,2218
3314863,2200
3314864,2188
3314865,2189
3314866,2200
3314867,2201
3314868,2191
3314869,2190
3314870,2202
3314871,2206
3314872,2233
3314873,2248
3314874,2253
3314875,2253
3314876,2247
3314877,2236
3314878,2235
3314879,2248
3314880,2255
3314881,2251
3314882,2251
3314883,2268
3314884,2318
3314885,2377
3314886,2424
3314887,2426
3314888,2414
3314889,2397
3314890,2382
3314891,2378
3314892,2366
3314893,2345
3314894,2311
3314895,2255
3314896,2216
3314897,2186
3314898,2167
3314899,2150
3314900,2134
3314901,2124
3314902,2137
3314903,2158
3314904,2188
3314905,2219
3314906,2247
3314907,2266
3314908,2285
3314909,2296
3314910,2287
3314911,2295
3314912,2284
3314913,2281
3314914,2269
3314915,2251
3314916,2249
3314917,2250
3314918,2254
3314919,2280
3314920,2296
3314921,2294
3314922,2282
3314923,2269
3314924,2266
3314925,2267
3314926,2267
3314927,2264
3314928,2252
3314929,2250
3314930,2251
3314931,2249
3314932,2235
3314933,2221
3314934,2222
3314935,2233
3314936,2238
3314937,2238
3314938,2236
3314939,2235
3314940,2219
3314941,2221
3314942,2255
3314943,2314
3314944,2393
3314945,2446
3314946,2457
3314947,2427
3314948,2360
3314949,2282
3314950,2215
3314951,2168
3314952,2124
3314953,2104
3314954,2096
3314955,2123
3314956,2169
3314957,2204
3314958,2248
3314959,2270
3314960,2281
3314961,2271
3314962,2269
3314963,2267
3314964,2266
3314965,2270
3314966,2281
3314967,2286
3314968,2311
3314969,2331
3314970,2363
3314971,2379
3314972,2378
3314973,2359
3314974,2312
3314975,2268
3314976,2240
3314977,2223
3314978,2202
3314979,2175
3314980,2174
3314981,2174
3314982,2200
3314983,2251
3314984,2330
3314985,2422
3314986,2502
3314987,2551
3314988,2544
3314989,2504
3314990,2424
3314991,2345
3314992,2282
3314993,2220
3314994,2170
3314995,2123
3314996,2103
3314997,2102
3314998,2121
3314999,2150
3315000,2173
3315001,2200
3315002,2216
3315003,2222
3315004,2236
3315005,2248
3315006,2252
3315007,2264
3315008,2267
3315009,2280
3315010,2282
3315011,2286
3315012,2299
3315013,2302
3315014,2311
3315015,2312
3315016,2313
3315017,2315
3315018,2317
3315019,2318
3315020,2319
3315021,2327
3315022,2329
3315023,2328
3315024,2329
3315025,2334
3315026,2346
3315027,2362
3315028,2376
3315029,2377
3315030,2361
3315031,2330
3315032,2295
3315033,2282
3315034,2299
3315035,2315
3315036,2336
3315037,2358
3315038,2365
3315039,2376
3315040,2381
3315041,2397
3315042,2415
3315043,2426
3315044,2408
3315045,2364
3315046,2327
3315047,2298
3315048,2285
3315049,2284
3315050,2285
3315051,2280
3315052,2269
3315053,2255
3315054,2264
3315055,2269
3315056,2266
3315057,2254
3315058,2248
3315059,2235
3315060,2233
3315061,2233
3315062,2236
3315063,2247
3315064,2267
3315065,2294
3315066,2316
3315067,2330
3315068,2329
3315069,2315
3315070,2288
3315071,2269
3315072,2268
3315073,2263
3315074,2247
3315075,2234
3315076,2232
3315077,2237
3315078,2249
3315079,2254
3315080,2254
3315081,2262
3315082,2263
3315083,2252
3315084,2250
3315085,2237
3315086,2223
3315087,2232
3315088,2249
3315089,2266
3315090,2283
3315091,2296
3315092,2300
3315093,2310
3315094,2311
3315095,2314
3315096,2315
3315097,2316
3315098,2331
3315099,2343
3315100,2344
3315101,2330
3315102,2311
3315103,2298
3315104,2298
3315105,2303
3315106,2302
3315107,2287
3315108,2285
3315109,2316
3315110,2382
3315111,2473
3315112,2519
3315113,2520
3315114,2477
3315115,2381
3315116,2283
3315117,2221
3315118,2191
3315119,2168
3315120,2142
3315121,2136
3315122,2144
3315123,2186
3315124,2252
3315125,2317
3315126,2391
3315127,2473
3315128,2541
3315129,2572
3315130,2559
3315131,2511
3315132,2431
3315133,2360
3315134,2288
3315135,2240
3315136,2205
3315137,2171
3315138,2127
3315139,2108
3315140,2126
3315141,2152
3315142,2170
3315143,2186
3315144,2200
3315145,2203
3315146,2201
3315147,2185
3315148,2200
3315149,2237
3315150,2312
3315151,2398
3315152,2491
3315153,2535
3315154,2552
3315155,2538
3315156,2492
3315157,2459
3315158,2428
3315159,2392
3315160,2332
3315161,2270
3315162,2215
3315163,2152
3315164,2126
3315165,2151
3315166,2191
3315167,2265
3315168,2334
3315169,2383
3315170,2394
3315171,2349
3315172,2281
3315173,2223
3315174,2202
3315175,2172
3315176,2153
3315177,2159
3315178,2190
3315179,2220
3315180,2251
3315181,2281
3315182,2296
3315183,2299
3315184,2312
3315185,2330
3315186,2334
3315187,2317
3315188,2313
3315189,2346
3315190,2414
3315191,2496
3315192,2557
3315193,2587
3315194,2556
3315195,2473
3315196,2375
3315197,2282
3315198,2222
3315199,2204
3315200,2221
3315201,2266
3315202,2312
3315203,2349
3315204,2380
3315205,2391
3315206,2378
3315207,2364
3315208,2346
3315209,2315
3315210,2281
3315211,2263
3315212,2263
3315213,2280
3315214,2287
3315215,2300
3315216,2318
3315217,2344
3315218,2366
3315219,2398
3315220,2424
3315221,2428
3315222,2430
3315223,2442
3315224,2443
3315225,2412
3315226,2376
3315227,2352
3315228,2329
3315229,2283
3315230,2252
3315231,2234
3315232,2232
3315233,2239
3315234,2265
3315235,2300
3315236,2345
3315237,2397
3315238,2439
3315239,2440
3315240,2399
3315241,2360
3315242,2320
3315243,2300
3315244,2301
3315245,2315
3315246,2315
3315247,2316
3315248,2316
3315249,2329
3315250,2351
3315251,2361
3315252,2335
3315253,2297
3315254,2249
3315255,2200
3315256,2174
3315257,2173
3315258,2189
3315259,2207
3315260,2250
3315261,2286
3315262,2330
3315263,2364
3315264,2392
3315265,2410
3315266,2441
3315267,2472
3315268,2489
3315269,2503
3315270,2505
3315271,2504
3315272,2478
3315273,2446
3315274,2410
3315275,2378
3315276,2360
3315277,2331
3315278,2300
3315279,2265
3315280,2208
3315281,2187
3315282,2191
3315283,2223
3315284,2296
3315285,2377
3315286,2471
3315287,2558
3315288,2618
3315289,2632
3315290,2600
3315291,2524
3315292,2454
3315293,2391
3315294,2346
3315295,2301
3315296,2250
3315297,2200
3315298,2174
3315299,2174
3315300,2188
3315301,2236
3315302,2286
3315303,2318
3315304,2347
3315305,2360
3315306,2334
3315307,2297
3315308,2266
3315309,2252
3315310,2251
3315311,2268
3315312,2314
3315313,2332
3315314,2348
3315315,2363
3315316,2397
3315317,2456
3315318,2494
3315319,2520
3315320,2523
3315321,2504
3315322,2456
3315323,2412
3315324,2366
3315325,2332
3315326,2296
3315327,2264
3315328,2252
3315329,2265
3315330,2266
3315331,2255
3315332,2250
3315333,2236
3315334,2235
3315335,2232
3315336,2219
3315337,2216
3315338,2219
3315339,2236
3315340,2266
3315341,2288
3315342,2319
3315343,2336
3315344,2379
3315345,2458
3315346,2551
3315347,2619
3315348,2670
3315349,2701
3315350,2712
3315351,2711
3315352,2698
3315353,2680
3315354,2637
3315355,2555
3315356,2457
3315357,2368
3315358,2310
3315359,2270
3315360,2239
3315361,2234
3315362,2256
3315363,2287
3315364,2300
3315365,2318
3315366,2328
3315367,2328
3315368,2315
3315369,2299
3315370,2284
3315371,2281
3315372,2281
3315373,2279
3315374,2270
3315375,2270
3315376,2271
3315377,2271
3315378,2295
3315379,2302
3315380,2316
3315381,2329
3315382,2331
3315383,2330
3315384,2329
3315385,2317
3315386,2299
3315387,2300
3315388,2315
3315389,2350
3315390,2380
3315391,2400
3315392,2440
3315393,2493
3315394,2574
3315395,2653
3315396,2703
3315397,2718
3315398,2682
3315399,2589
3315400,2495
3315401,2415
3315402,2350
3315403,2299
3315404,2263
3315405,2216
3315406,2203
3315407,2248
3315408,2329
3315409,2427
3315410,2519
3315411,2560
3315412,2572
3315413,2521
3315414,2458
3315415,2393
3315416,2364
3315417,2351
3315418,2330
3315419,2317
3315420,2334
3315421,2366
3315422,2382
3315423,2397
3315424,2416
3315425,2440
3315426,2427
3315427,2400
3315428,2383
3315429,2394
3315430,2415
3315431,2444
3315432,2472
3315433,2492
3315434,2488
3315435,2458
3315436,2425
3315437,2380
3315438,2333
3315439,2296
3315440,2265
3315441,2252
3315442,2253
3315443,2253
3315444,2250
3315445,2264
3315446,2271
3315447,2286
3315448,2297
3315449,2315
3315450,2351
3315451,2413
3315452,2490
3315453,2555
3315454,2587
3315455,2571
3315456,2506
3315457,2413
3315458,2334
3315459,2285
3315460,2267
3315461,2263
3315462,2296
3315463,2351
3315464,2456
3315465,2556
3315466,2618
3315467,2632
3315468,2617
3315469,2590
3315470,2555
3315471,2506
3315472,2458
3315473,2428
3315474,2398
3315475,2351
3315476,2298
3315477,2265
3315478,2223
3315479,2207
3315480,2201
3315481,2205
3315482,2217
3315483,2231
3315484,2250
3315485,2281
3315486,2332
3315487,2383
3315488,2426
3315489,2461
3315490,2503
3315491,2543
3315492,2590
3315493,2620
3315494,2618
3315495,2576
3315496,2508
3315497,2446
3315498,2411
3315499,2408
3315500,2412
3315501,2415
3315502,2395
3315503,2366
3315504,2331
3315505,2298
3315506,2298
3315507,2316
3315508,2363
3315509,2407
3315510,2424
3315511,2440
3315512,2440
3315513,2415
3315514,2394
3315515,2393
3315516,2398
3315517,2415
3315518,2442
3315519,2447
3315520,2446
3315521,2442
3315522,2424
3315523,2398
3315524,2382
3315525,2376
3315526,2363
3315527,2344
3315528,2328
3315529,2327
3315530,2331
3315531,2344
3315532,2348
3315533,2349
3315534,2348
3315535,2349
3315536,2360
3315537,2377
3315538,2395
3315539,2406
3315540,2410
3315541,2429
3315542,2472
3315543,2510
3315544,2538
3315545,2540
3315546,2523
3315547,2505
3315548,2474
3315549,2459
3315550,2442
3315551,2408
3315552,2366
3315553,2348
3315554,2349
3315555,2365
3315556,2380
3315557,2383
3315558,2393
3315559,2397
3315560,2412
3315561,2439
3315562,2462
3315563,2491
3315564,2510
3315565,2527
3315566,2536
3315567,2538
3315568,2557
3315569,2591
3315570,2631
3315571,2640
3315572,2623
3315573,2572
3315574,2491
3315575,2425
3315576,2378
3315577,2360
3315578,2344
3315579,2334
3315580,2344
3315581,2363
3315582,2382
3315583,2413
3315584,2439
3315585,2447
3315586,2447
3315587,2446
3315588,2444
3315589,2440
3315590,2441
3315591,2429
3315592,2425
3315593,2415
3315594,2415
3315595,2416
3315596,2414
3315597,2426
3315598,2442
3315599,2454
3315600,2460
3315601,2471
3315602,2476
3315603,2487
3315604,2489
3315605,2489
3315606,2487
3315607,2479
3315608,2478
3315609,2475
3315610,2472
3315611,2463
3315612,2462
3315613,2458
3315614,2458
3315615,2457
3315616,2457
3315617,2455
3315618,2456
3315619,2455
3315620,2456
3315621,2456
3315622,2455
3315623,2456
3315624,2456
3315625,2457
3315626,2458
3315627,2457
3315628,2455
3315629,2454
3315630,2455
3315631,2456
3315632,2457
3315633,2461
3315634,2461
3315635,2472
3315636,2475
3315637,2477
3315638,2479
3315639,2489
3315640,2489
3315641,2479
3315642,2463
3315643,2457
3315644,2443
3315645,2430
3315646,2424
3315647,2413
3315648,2415
3315649,2425
3315650,2443
3315651,2477
3315652,2519
3315653,2555
3315654,2604
3315655,2650
3315656,2670
3315657,2684
3315658,2668
3315659,2619
3315660,2558
3315661,2521
3315662,2476
3315663,2439
3315664,2393
3315665,2345
3315666,2286
3315667,2263
3315668,2265
3315669,2270
3315670,2279
3315671,2266
3315672,2263
3315673,2254
3315674,2267
3315675,2283
3315676,2296
3315677,2311
3315678,2327
3315679,2331
3315680,2334
3315681,2346
3315682,2352
3315683,2364
3315684,2376
3315685,2376
3315686,2378
3315687,2381
3315688,2381
3315689,2379
3315690,2379
3315691,2379
3315692,2378
3315693,2378
3315694,2376
3315695,2377
3315696,2380
3315697,2396
3315698,2413
3315699,2430
3315700,2443
3315701,2443
3315702,2444
3315703,2455
3315704,2461
3315705,2463
3315706,2460
3315707,2432
3315708,2400
3315709,2365
3315710,2335
3315711,2303
3315712,2280
3315713,2252
3315714,2252
3315715,2255
3315716,2269
3315717,2281
3315718,2295
3315719,2298
3315720,2304
3315721,2313
3315722,2317
3315723,2318
3315724,2318
3315725,2318
3315726,2328
3315727,2328
3315728,2335
3315729,2346
3315730,2351
3315731,2364
3315732,2378
3315733,2383
3315734,2396
3315735,2398
3315736,2397
3315737,2393
3315738,2376
3315739,2361
3315740,2350
3315741,2345
3315742,2332
3315743,2327
3315744,2314
3315745,2302
3315746,2314
3315747,2315
3315748,2315
3315749,2311
3315750,2302
3315751,2313
3315752,2328
3315753,2329
3315754,2335
3315755,2347
3315756,2343
3315757,2345
3315758,2351
3315759,2365
3315760,2380
3315761,2378
3315762,2362
3315763,2343
3315764,2298
3315765,2251
3315766,2206
3315767,2168
3315768,2141
3315769,2110
3315770,2104
3315771,2121
3315772,2141
3315773,2168
3315774,2188
3315775,2217
3315776,2236
3315777,2249
3315778,2253
3315779,2255
3315780,2265
3315781,2270
3315782,2269
3315783,2264
3315784,2249
3315785,2234
3315786,2224
3315787,2231
3315788,2222
3315789,2223
3315790,2220
3315791,2220
3315792,2220
3315793,2235
3315794,2251
3315795,2267
3315796,2286
3315797,2300
3315798,2312
3315799,2316
3315800,2330
3315801,2333
3315802,2327
3315803,2312
3315804,2287
3315805,2267
3315806,2237
3315807,2201
3315808,2168
3315809,2122
3315810,2094
3315811,2092
3315812,2104
3315813,2111
3315814,2125
3315815,2135
3315816,2136
3315817,2142
3315818,2154
3315819,2155
3315820,2152
3315821,2151
3315822,2143
3315823,2152
3315824,2155
3315825,2160
3315826,2169
3315827,2184
3315828,2186
3315829,2200
3315830,2206
3315831,2237
3315832,2265
3315833,2298
3315834,2332
3315835,2377
3315836,2410
3315837,2429
3315838,2425
3315839,2390
3315840,2332
3315841,2240
3315842,2158
3315843,2106
3315844,2075
3315845,2047
3315846,2029
3315847,2025
3315848,2030
3315849,2058
3315850,2088
3315851,2107
3315852,2141
3315853,2189
3315854,2279
3315855,2335
3315856,2367
3315857,2378
3315858,2374
3315859,2349
3315860,2315
3315861,2283
3315862,2238
3315863,2191
3315864,2151
3315865,2110
3315866,2091
3315867,2046
3315868,1998
3315869,1976
3315870,1967
3315871,1993
3315872,2026
3315873,2056
3315874,2075
3315875,2089
3315876,2093
3315877,2094
3315878,2105
3315879,2107
3315880,2111
3315881,2122
3315882,2124
3315883,2125
3315884,2134
3315885,2128
3315886,2126
3315887,2126
3315888,2126
3315889,2128
3315890,2136
3315891,2140
3315892,2143
3315893,2144
3315894,2152
3315895,2144
3315896,2151
3315897,2152
3315898,2167
3315899,2169
3315900,2172
3315901,2189
3315902,2203
3315903,2221
3315904,2238
3315905,2251
3315906,2253
3315907,2248
3315908,2233
3315909,2220
3315910,2205
3315911,2185
3315912,2157
3315913,2124
3315914,2103
3315915,2087
3315916,2087
3315917,2105
3315918,2121
3315919,2126
3315920,2128
3315921,2124
3315922,2112
3315923,2109
3315924,2110
3315925,2109
3315926,2110
3315927,2111
3315928,2111
3315929,2124
3315930,2141
3315931,2169
3315932,2200
3315933,2223
3315934,2238
3315935,2249
3315936,2248
3315937,2231
3315938,2198
3315939,2171
3315940,2141
3315941,2121
3315942,2092
3315943,2062
3315944,2042
3315945,2028
3315946,2030
3315947,2064
3315948,2103
3315949,2124
3315950,2136
3315951,2143
3315952,2152
3315953,2152
3315954,2141
3315955,2137
3315956,2127
3315957,2124
3315958,2122
3315959,2104
3315960,2075
3315961,2058
3315962,2073
3315963,2121
3315964,2185
3315965,2233
3315966,2247
3315967,2218
3315968,2169
3315969,2119
3315970,2077
3315971,2060
3315972,2058
3315973,2046
3315974,2041
3315975,2040
3315976,2047
3315977,2063
3315978,2075
3315979,2078
3315980,2088
3315981,2091
3315982,2093
3315983,2103
3315984,2104
3315985,2120
3315986,2127
3315987,2152
3315988,2170
3315989,2185
3315990,2200
3315991,2204
3315992,2206
3315993,2205
3315994,2204
3315995,2190
3315996,2173
3315997,2153
3315998,2143
3315999,2157
3316000,2168
3316001,2167
3316002,2169
3316003,2175
3316004,2184
3316005,2191
3316006,2201
3316007,2189
3316008,2157
3316009,2127
3316010,2105
3316011,2088
3316012,2079
3316013,2090
3316014,2076
3316015,2072
3316016,2078
3316017,2089
3316018,2087
3316019,2088
3316020,2079
3316021,2078
3316022,2088
3316023,2094
3316024,2108
3316025,2123
3316026,2125
3316027,2122
3316028,2108
3316029,2092
3316030,2088
3316031,2088
3316032,2090
3316033,2091
3316034,2092
3316035,2104
3316036,2110
3316037,2121
3316038,2122
3316039,2136
3316040,2158
3316041,2189
3316042,2216
3316043,2204
3316044,2199
3316045,2172
3316046,2153
3316047,2123
3316048,2107
3316049,2095
3316050,2078
3316051,2073
3316052,2076
3316053,2089
3316054,2104
3316055,2120
3316056,2140
3316057,2143
3316058,2141
3316059,2152
3316060,2170
3316061,2203
3316062,2237
3316063,2255
3316064,2253
3316065,2232
3316066,2189
3316067,2142
3316068,2107
3316069,2088
3316070,2064
3316071,2057
3316072,2044
3316073,2045
3316074,2063
3316075,2080
3316076,2078
3316077,2093
3316078,2108
3316079,2107
3316080,2105
3316081,2105
3316082,2107
3316083,2108
3316084,2110
3316085,2110
3316086,2109
3316087,2109
3316088,2108
3316089,2108
3316090,2107
3316091,2108
3316092,2118
3316093,2120
3316094,2135
3316095,2143
3316096,2156
3316097,2159
3316098,2169
3316099,2170
3316100,2172
3316101,2183
3316102,2184
3316103,2175
3316104,2171
3316105,2174
3316106,2199
3316107,2219
3316108,2236
3316109,2246
3316110,2246
3316111,2248
3316112,2250
3316113,2250
3316114,2232
3316115,2190
3316116,2126
3316117,2061
3316118,2013
3316119,1992
3316120,1978
3316121,1977
3316122,1983
3316123,2010
3316124,2056
3316125,2088
3316126,2109
3316127,2124
3316128,2120
3316129,2118
3316130,2109
3316131,2120
3316132,2127
3316133,2154
3316134,2173
3316135,2186
3316136,2173
3316137,2127
3316138,2089
3316139,2064
3316140,2088
3316141,2135
3316142,2189
3316143,2217
3316144,2215
3316145,2185
3316146,2153
3316147,2137
3316148,2125
3316149,2121
3316150,2120
3316151,2120
3316152,2109
3316153,2106
3316154,2108
3316155,2107
3316156,2106
3316157,2110
3316158,2119
3316159,2123
3316160,2121
3316161,2107
3316162,2110
3316163,2142
3316164,2190
3316165,2234
3316166,2264
3316167,2252
3316168,2217
3316169,2154
3316170,2103
3316171,2059
3316172,2027
3316173,1995
3316174,1977
3316175,1977
3316176,1994
3316177,2028
3316178,2061
3316179,2078
3316180,2095
3316181,2107
3316182,2124
3316183,2139
3316184,2154
3316185,2160
3316186,2171
3316187,2173
3316188,2170
3316189,2168
3316190,2173
3316191,2185
3316192,2188
3316193,2186
3316194,2172
3316195,2152
3316196,2120
3316197,2110
3316198,2108
3316199,2104
3316200,2092
3316201,2078
3316202,2076
3316203,2077
3316204,2076
3316205,2079
3316206,2091
3316207,2103
3316208,2108
3316209,2109
3316210,2111
3316211,2121
3316212,2121
3316213,2124
3316214,2125
3316215,2125
3316216,2127
3316217,2137
3316218,2137
3316219,2136
3316220,2143
3316221,2171
3316222,2184
3316223,2185
3316224,2203
3316225,2252
3316226,2329
3316227,2415
3316228,2462
3316229,2460
3316230,2410
3316231,2312
3316232,2202
3316233,2124
3316234,2074
3316235,2024
3316236,1966
3316237,1932
3316238,1934
3316239,1975
3316240,2011
3316241,2044
3316242,2063
3316243,2078
3316244,2093
3316245,2108
3316246,2122
3316247,2127
3316248,2137
3316249,2143
3316250,2158
3316251,2171
3316252,2184
3316253,2188
3316254,2198
3316255,2200
3316256,2202
3316257,2201
3316258,2201
3316259,2200
3316260,2192
3316261,2186
3316262,2183
3316263,2172
3316264,2168
3316265,2168
3316266,2158
3316267,2157
3316268,2167
3316269,2159
3316270,2156
3316271,2151
3316272,2142
3316273,2136
3316274,2135
3316275,2136
3316276,2139
3316277,2141
3316278,2141
3316279,2143
3316280,2142
3316281,2137
3316282,2137
3316283,2139
3316284,2141
3316285,2152
3316286,2155
3316287,2158
3316288,2160
3316289,2170
3316290,2175
3316291,2184
3316292,2188
3316293,2189
3316294,2199
3316295,2202
3316296,2206
3316297,2205
3316298,2206
3316299,2202
3316300,2191
3316301,2187
3316302,2184
3316303,2182
3316304,2172
3316305,2173
3316306,2172
3316307,2174
3316308,2184
3316309,2187
3316310,2188
3316311,2190
3316312,2191
3316313,2200
3316314,2200
3316315,2189
3316316,2184
3316317,2184
3316318,2188
3316319,2200
3316320,2205
3316321,2217
3316322,2220
3316323,2220
3316324,2223
3316325,2234
3316326,2237
3316327,2251
3316328,2264
3316329,2269
3316330,2270
3316331,2266
3316332,2248
3316333,2232
3316334,2238
3316335,2278
3316336,2314
3316337,2347
3316338,2350
3316339,2331
3316340,2284
3316341,2234
3316342,2189
3316343,2157
3316344,2125
3316345,2078
3316346,2041
3316347,2031
3316348,2045
3316349,2079
3316350,2105
3316351,2122
3316352,2135
3316353,2142
3316354,2157
3316355,2184
3316356,2215
3316357,2233
3316358,2233
3316359,2232
3316360,2236
3316361,2239
3316362,2265
3316363,2284
3316364,2312
3316365,2317
3316366,2313
3316367,2283
3316368,2239
3316369,2206
3316370,2173
3316371,2156
3316372,2153
3316373,2153
3316374,2155
3316375,2154
3316376,2151
3316377,2157
3316378,2171
3316379,2171
3316380,2170
3316381,2171
3316382,2174
3316383,2186
3316384,2191
3316385,2200
3316386,2205
3316387,2217
3316388,2216
3316389,2216
3316390,2217
3316391,2218
3316392,2219
3316393,2220
3316394,2220
3316395,2223
3316396,2222
3316397,2221
3316398,2222
3316399,2231
3316400,2234
3316401,2233
3316402,2234
3316403,2236
3316404,2236
3316405,2237
3316406,2236
3316407,2238
3316408,2239
3316409,2237
3316410,2237
3316411,2237
3316412,2236
3316413,2239
3316414,2235
3316415,2235
3316416,2236
3316417,2235
3316418,2235
3316419,2236
3316420,2236
3316421,2236
3316422,2236
3316423,2235
3316424,2234
3316425,2236
3316426,2236
3316427,2234
3316428,2238
3316429,2239
3316430,2247
3316431,2247
3316432,2247
3316433,2247
3316434,2238
3316435,2247
3316436,2239
3316437,2239
3316438,2236
3316439,2236
3316440,2234
3316441,2234
3316442,2236
3316443,2235
3316444,2238
3316445,2248
3316446,2248
3316447,2249
3316448,2247
3316449,2237
3316450,2247
3316451,2239
3316452,2248
3316453,2238
3316454,2246
3316455,2238
3316456,2248
3316457,2248
3316458,2247
3316459,2247
3316460,2239
3316461,2238
3316462,2238
3316463,2238
3316464,2238
3316465,2235
3316466,2223
3316467,2234
3316468,2239
3316469,2249
3316470,2252
3316471,2254
3316472,2263
3316473,2266
3316474,2264
3316475,2254
3316476,2250
3316477,2251
3316478,2252
3316479,2251
3316480,2248
3316481,2239
3316482,2238
3316483,2247
3316484,2240
3316485,2246
3316486,2247
3316487,2239
3316488,2248
3316489,2239
3316490,2237
3316491,2238
3316492,2238
3316493,2237
3316494,2237
3316495,2238
3316496,2238
3316497,2240
3316498,2239
3316499,2238
3316500,2238
3316501,2238
3316502,2236
3316503,2238
3316504,2238
3316505,2239
3316506,2247
3316507,2247
3316508,2247
3316509,2248
3316510,2248
3316511,2239
3316512,2239
3316513,2239
3316514,2240
3316515,2248
3316516,2248
3316517,2248
3316518,2249
3316519,2254
3316520,2263
3316521,2264
3316522,2267
3316523,2269
3316524,2269
3316525,2266
3316526,2265
3316527,2264
3316528,2263
3316529,2254
3316530,2254
3316531,2252
3316532,2251
3316533,2250
3316534,2248
3316535,2247
3316536,2239
3316537,2247
3316538,2240
3316539,2237
3316540,2234
3316541,2237
3316542,2237
3316543,2235
3316544,2238
3316545,2238
3316546,2238
3316547,2240
3316548,2248
3316549,2248
3316550,2248
3316551,2240
3316552,2237
3316553,2247
3316554,2247
3316555,2249
3316556,2249
3316557,2250
3316558,2250
3316559,2249
3316560,2250
3316561,2249
3316562,2251
3316563,2251
3316564,2252
3316565,2251
3316566,2254
3316567,2254
3316568,2256
3316569,2264
3316570,2263
3316571,2265
3316572,2263
3316573,2264
3316574,2264
3316575,2264
3316576,2264
3316577,2266
3316578,2266
3316579,2266
3316580,2263
3316581,2263
3316582,2255
3316583,2263
3316584,2262
3316585,2251
3316586,2249
3316587,2254
3316588,2264
3316589,2267
3316590,2267
3316591,2267
3316592,2267
3316593,2267
3316594,2266
3316595,2267
3316596,2266
3316597,2255
3316598,2253
3316599,2263
3316600,2264
3316601,2264
3316602,2263
3316603,2264
3316604,2263
3316605,2262
3316606,2263
3316607,2264
3316608,2265
3316609,2264
3316610,2264
3316611,2265
3316612,2265
3316613,2266
3316614,2266
3316615,2265
3316616,2268
3316617,2270
3316618,2271
3316619,2281
3316620,2283
3316621,2282
3316622,2283
3316623,2282
3316624,2281
3316625,2283
3316626,2281
3316627,2282
3316628,2284
3316629,2283
3316630,2284
3316631,2285
3316632,2285
3316633,2288
3316634,2296
3316635,2297
3316636,2296
3316637,2297
3316638,2298
3316639,2296
3316640,2295
3316641,2297
3316642,2301
3316643,2303
3316644,2312
3316645,2304
3316646,2312
3316647,2311
3316648,2311
3316649,2311
3316650,2312
3316651,2313
3316652,2313
3316653,2315
3316654,2316
3316655,2318
3316656,2319
3316657,2320
3316658,2327
3316659,2327
3316660,2320
3316661,2327
3316662,2328
3316663,2327
3316664,2318
3316665,2327
3316666,2328
3316667,2327
3316668,2331
3316669,2329
3316670,2331
3316671,2331
3316672,2332
3316673,2333
3316674,2334
3316675,2334
3316676,2343
3316677,2334
3316678,2342
3316679,2335
3316680,2343
3316681,2343
3316682,2345
3316683,2348
3316684,2348
3316685,2349
3316686,2350
3316687,2348
3316688,2349
3316689,2345
3316690,2344
3316691,2343
3316692,2344
3316693,2344
3316694,2345
3316695,2347
3316696,2350
3316697,2360
3316698,2360
3316699,2363
3316700,2367
3316701,2375
3316702,2376
3316703,2367
3316704,2375
3316705,2368
3316706,2366
3316707,2374
3316708,2377
3316709,2380
3316710,2379
3316711,2379
3316712,2382
3316713,2391
3316714,2391
3316715,2392
3316716,2394
3316717,2393
3316718,2393
3316719,2393
3316720,2393
3316721,2393
3316722,2394
3316723,2394
3316724,2395
3316725,2396
3316726,2397
3316727,2397
3316728,2399
3316729,2399
3316730,2398
3316731,2398
3316732,2395
3316733,2396
3316734,2397
3316735,2399
3316736,2411
3316737,2411
3316738,2410
3316739,2412
3316740,2410
3316741,2409
3316742,2410
3316743,2409
3316744,2410
3316745,2412
3316746,2411
3316747,2410
3316748,2412
3316749,2411
3316750,2411
3316751,2411
3316752,2412
3316753,2411
3316754,2411
3316755,2412
3316756,2413
3316757,2414
3316758,2415
3316759,2424
3316760,2424
3316761,2426
3316762,2427
3316763,2429
3316764,2429
3316765,2430
3316766,2430
3316767,2438
3316768,2430
3316769,2430
3316770,2430
3316771,2430
3316772,2430
3316773,2428
3316774,2426
3316775,2426
3316776,2427
3316777,2428
3316778,2428
3316779,2430
3316780,2432
3316781,2430
3316782,2428
3316783,2431
3316784,2431
3316785,2439
3316786,2430
3316787,2431
3316788,2430
3316789,2428
3316790,2427
3316791,2428
3316792,2431
3316793,2438
3316794,2442
3316795,2442
3316796,2440
3316797,2441
3316798,2443
3316799,2445
3316800,2443
3316801,2442
3316802,2445
3316803,2447
3316804,2456
3316805,2459
3316806,2461
3316807,2471
3316808,2472
3316809,2472
3316810,2473
3316811,2475
3316812,2476
3316813,2475
3316814,2475
3316815,2474
3316816,2475
3316817,2478
3316818,2477
3316819,2477
3316820,2478
3316821,2475
3316822,2474
3316823,2474
3316824,2475
3316825,2476
3316826,2476
3316827,2478
3316828,2478
3316829,2487
3316830,2486
3316831,2478
3316832,2479
3316833,2477
3316834,2477
3316835,2476
3316836,2476
3316837,2478
3316838,2480
3316839,2480
3316840,2479
3316841,2488
3316842,2489
3316843,2489
3316844,2491
3316845,2493
3316846,2492
3316847,2493
3316848,2504
3316849,2506
3316850,2509
3316851,2520
3316852,2523
3316853,2524
3316854,2525
3316855,2525
3316856,2520
3316857,2520
3316858,2519
3316859,2522
3316860,2522
3316861,2520
3316862,2520
3316863,2519
3316864,2510
3316865,2508
3316866,2504
3316867,2506
3316868,2507
3316869,2508
3316870,2510
3316871,2510
3316872,2507
3316873,2508
3316874,2508
3316875,2508
3316876,2507
3316877,2506
3316878,2507
3316879,2507
3316880,2507
3316881,2509
3316882,2508
3316883,2510
3316884,2511
3316885,2510
3316886,2509
3316887,2511
3316888,2521
3316889,2520
3316890,2521
3316891,2522
3316892,2522
3316893,2523
3316894,2522
3316895,2522
3316896,2522
3316897,2522
3316898,2522
3316899,2521
3316900,2521
3316901,2524
3316902,2524
3316903,2525
3316904,2526
3316905,2527
3316906,2527
3316907,2536
3316908,2537
3316909,2537
3316910,2535
3316911,2535
3316912,2536
3316913,2534
3316914,2526
3316915,2522
3316916,2523
3316917,2524
3316918,2525
3316919,2525
3316920,2526
3316921,2527
3316922,2536
3316923,2537
3316924,2536
3316925,2526
3316926,2525
3316927,2523
3316928,2511
3316929,2510
3316930,2509
3316931,2518
3316932,2520
3316933,2520
3316934,2519
3316935,2511
3316936,2519
3316937,2520
3316938,2520
3316939,2511
3316940,2520
3316941,2520
3316942,2519
3316943,2519
3316944,2519
3316945,2511
3316946,2520
3316947,2520
3316948,2522
3316949,2521
3316950,2521
3316951,2522
3316952,2524
3316953,2521
3316954,2521
3316955,2521
3316956,2522
3316957,2522
3316958,2525
3316959,2526
3316960,2525
3316961,2526
3316962,2537
3316963,2537
3316964,2538
3316965,2537
3316966,2539
3316967,2540
3316968,2538
3316969,2537
3316970,2540
3316971,2539
3316972,2539
3316973,2541
3316974,2543
3316975,2551
3316976,2552
3316977,2553
3316978,2552
3316979,2541
3316980,2541
3316981,2540
3316982,2540
3316983,2540
3316984,2541
3316985,2543
3316986,2540
3316987,2540
3316988,2540
3316989,2541
3316990,2541
3316991,2542
3316992,2539
3316993,2539
3316994,2541
3316995,2543
3316996,2542
3316997,2541
3316998,2541
3316999,2539
3317000,2538
3317001,2539
3317002,2537
3317003,2537
3317004,2537
3317005,2537
3317006,2538
3317007,2538
3317008,2540
3317009,2539
3317010,2538
3317011,2537
3317012,2539
3317013,2541
3317014,2539
3317015,2542
3317016,2542
3317017,2543
3317018,2544
3317019,2552
3317020,2552
3317021,2554
3317022,2554
3317023,2552
3317024,2553
3317025,2553
3317026,2551
3317027,2537
3317028,2537
3317029,2540
3317030,2542
3317031,2543
3317032,2540
3317033,2538
3317034,2539
3317035,2527
3317036,2523
3317037,2521
3317038,2520
3317039,2523
3317040,2520
3317041,2521
3317042,2521
3317043,2521
3317044,2520
3317045,2523
3317046,2522
3317047,2522
3317048,2524
3317049,2522
3317050,2522
3317051,2520
3317052,2519
3317053,2520
3317054,2511
3317055,2521
3317056,2521
3317057,2520
3317058,2520
3317059,2521
3317060,2520
3317061,2520
3317062,2520
3317063,2521
3317064,2521
3317065,2518
3317066,2505
3317067,2504
3317068,2510
3317069,2519
3317070,2520
3317071,2519
3317072,2511
3317073,2510
3317074,2510
3317075,2509
3317076,2508
3317077,2509
3317078,2509
3317079,2509
3317080,2510
3317081,2509
3317082,2520
3317083,2518
3317084,2510
3317085,2512
3317086,2511
3317087,2520
3317088,2520
3317089,2520
3317090,2510
3317091,2509
3317092,2507
3317093,2507
3317094,2507
3317095,2507
3317096,2507
3317097,2509
3317098,2506
3317099,2505
3317100,2504
3317101,2505
3317102,2505
3317103,2503
3317104,2504
3317105,2505
3317106,2505
3317107,2504
3317108,2504
3317109,2504
3317110,2505
3317111,2504
3317112,2503
3317113,2505
3317114,2505
3317115,2505
3317116,2505
3317117,2507
3317118,2508
3317119,2505
3317120,2503
3317121,2493
3317122,2492
3317123,2491
3317124,2491
3317125,2490
3317126,2489
3317127,2490
3317128,2492
3317129,2491
3317130,2490
3317131,2491
3317132,2489
3317133,2489
3317134,2488
3317135,2490
3317136,2488
3317137,2489
3317138,2490
3317139,2490
3317140,2491
3317141,2490
3317142,2491
3317143,2489
3317144,2488
3317145,2488
3317146,2487
3317147,2487
3317148,2489
3317149,2488
3317150,2488
3317151,2488
3317152,2488
3317153,2487
3317154,2489
3317155,2490
3317156,2490
3317157,2488
3317158,2490
3317159,2490
3317160,2489
3317161,2488
3317162,2488
3317163,2487
3317164,2486
3317165,2486
3317166,2488
3317167,2489
3317168,2490
3317169,2489
3317170,2488
3317171,2488
3317172,2487
3317173,2488
3317174,2490
3317175,2488
3317176,2489
3317177,2490
3317178,2491
3317179,2489
3317180,2488
3317181,2490
3317182,2491
3317183,2494
3317184,2494
3317185,2493
3317186,2493
3317187,2491
3317188,2487
3317189,2490
3317190,2492
3317191,2493
3317192,2492
3317193,2490
3317194,2490
3317195,2490
3317196,2492
3317197,2492
3317198,2495
3317199,2495
3317200,2503
3317201,2503
3317202,2494
3317203,2494
3317204,2492
3317205,2492
3317206,2493
3317207,2496
3317208,2494
3317209,2493
3317210,2493
3317211,2502
3317212,2495
3317213,2503
3317214,2504
3317215,2504
3317216,2505
3317217,2505
3317218,2507
3317219,2507
3317220,2508
3317221,2510
3317222,2510
3317223,2509
3317224,2509
3317225,2509
3317226,2508
3317227,2507
3317228,2507
3317229,2507
3317230,2509
3317231,2511
3317232,2512
3317233,2511
3317234,2511
3317235,2511
3317236,2509
3317237,2509
3317238,2508
3317239,2508
3317240,2507
3317241,2509
3317242,2509
3317243,2511
3317244,2519
3317245,2521
3317246,2521
3317247,2523
3317248,2523
3317249,2524
3317250,2520
3317251,2519
3317252,2520
3317253,2525
3317254,2523
3317255,2521
3317256,2525
3317257,2524
3317258,2526
3317259,2525
3317260,2535
3317261,2536
3317262,2539
3317263,2539
3317264,2539
3317265,2540
3317266,2539
3317267,2540
3317268,2540
3317269,2541
3317270,2542
3317271,2551
3317272,2542
3317273,2551
3317274,2541
3317275,2536
3317276,2520
3317277,2525
3317278,2539
3317279,2542
3317280,2543
3317281,2544
3317282,2541
3317283,2540
3317284,2536
3317285,2537
3317286,2536
3317287,2537
3317288,2538
3317289,2539
3317290,2539
3317291,2537
3317292,2539
3317293,2537
3317294,2538
3317295,2537
3317296,2536
3317297,2535
3317298,2536
3317299,2537
3317300,2538
3317301,2538
3317302,2538
3317303,2537
3317304,2536
3317305,2527
3317306,2527
3317307,2525
3317308,2526
3317309,2525
3317310,2525
3317311,2525
3317312,2525
3317313,2524
3317314,2522
3317315,2521
3317316,2520
3317317,2520
3317318,2520
3317319,2521
3317320,2522
3317321,2522
3317322,2522
3317323,2521
3317324,2520
3317325,2519
3317326,2512
3317327,2519
3317328,2511
3317329,2510
3317330,2508
3317331,2508
3317332,2507
3317333,2508
3317334,2508
3317335,2507
3317336,2506
3317337,2505
3317338,2505
3317339,2505
3317340,2506
3317341,2505
3317342,2504
3317343,2504
3317344,2503
3317345,2503
3317346,2495
3317347,2492
3317348,2491
3317349,2491
3317350,2489
3317351,2487
3317352,2487
3317353,2487
3317354,2490
3317355,2480
3317356,2477
3317357,2473
3317358,2464
3317359,2461
3317360,2459
3317361,2459
3317362,2459
3317363,2457
3317364,2455
3317365,2455
3317366,2454
3317367,2447
3317368,2455
3317369,2445
3317370,2445
3317371,2442
3317372,2440
3317373,2430
3317374,2429
3317375,2428
3317376,2426
3317377,2425
3317378,2423
3317379,2423
3317380,2422
3317381,2415
3317382,2412
3317383,2409
3317384,2407
3317385,2400
3317386,2396
3317387,2396
3317388,2397
3317389,2396
3317390,2395
3317391,2394
3317392,2394
3317393,2393
3317394,2392
3317395,2392
3317396,2383
3317397,2381
3317398,2380
3317399,2379
3317400,2379
3317401,2378
3317402,2378
3317403,2377
3317404,2367
3317405,2367
3317406,2366
3317407,2366
3317408,2364
3317409,2363
3317410,2363
3317411,2361
3317412,2360
3317413,2360
3317414,2359
3317415,2351
3317416,2348
3317417,2346
3317418,2344
3317419,2344
3317420,2343
3317421,2334
3317422,2333
3317423,2332
3317424,2333
3317425,2319
3317426,2303
3317427,2314
3317428,2317
3317429,2319
3317430,2317
3317431,2315
3317432,2315
3317433,2314
3317434,2312
3317435,2313
3317436,2312
3317437,2312
3317438,2314
3317439,2315
3317440,2316
3317441,2317
3317442,2317
3317443,2318
3317444,2313
3317445,2303
3317446,2302
3317447,2302
3317448,2300
3317449,2302
3317450,2303
3317451,2301
3317452,2300
3317453,2298
3317454,2298
3317455,2298
3317456,2298
3317457,2299
3317458,2297
3317459,2298
3317460,2297
3317461,2296
3317462,2287
3317463,2287
3317464,2294
3317465,2296
3317466,2286
3317467,2285
3317468,2287
3317469,2285
3317470,2286
3317471,2286
3317472,2284
3317473,2282
3317474,2281
3317475,2283
3317476,2281
3317477,2281
3317478,2281
3317479,2280
3317480,2279
3317481,2279
3317482,2271
3317483,2280
3317484,2271
3317485,2267
3317486,2251
3317487,2255
3317488,2268
3317489,2270
3317490,2271
3317491,2280
3317492,2279
3317493,2279
3317494,2280
3317495,2280
3317496,2279
3317497,2279
3317498,2280
3317499,2279
3317500,2268
3317501,2269
3317502,2270
3317503,2269
3317504,2269
3317505,2270
3317506,2270
3317507,2270
3317508,2279
3317509,2280
3317510,2280
3317511,2280
3317512,2272
3317513,2279
3317514,2281
3317515,2279
3317516,2269
3317517,2267
3317518,2267
3317519,2266
3317520,2267
3317521,2268
3317522,2271
3317523,2269
3317524,2271
3317525,2271
3317526,2269
3317527,2268
3317528,2271
3317529,2271
3317530,2279
3317531,2270
3317532,2269
3317533,2270
3317534,2267
3317535,2267
3317536,2268
3317537,2270
3317538,2270
3317539,2270
3317540,2270
3317541,2270
3317542,2270
3317543,2271
3317544,2280
3317545,2279
3317546,2279
3317547,2280
3317548,2280
3317549,2279
3317550,2280
3317551,2280
3317552,2280
3317553,2280
3317554,2278
3317555,2281
3317556,2280
3317557,2279
3317558,2280
3317559,2280
3317560,2280
3317561,2281
3317562,2281
3317563,2281
3317564,2282
3317565,2280
3317566,2280
3317567,2282
3317568,2284
3317569,2284
3317570,2284
3317571,2281
3317572,2279
3317573,2272
3317574,2279
3317575,2269
3317576,2261
3317577,2267
3317578,2281
3317579,2282
3317580,2281
3317581,2280
3317582,2282
3317583,2282
3317584,2282
3317585,2283
3317586,2284
3317587,2285
3317588,2286
3317589,2284
3317590,2284
3317591,2281
3317592,2281
3317593,2281
3317594,2284
3317595,2285
3317596,2285
3317597,2286
3317598,2286
3317599,2285
3317600,2282
3317601,2282
3317602,2280
3317603,2280
3317604,2280
3317605,2279
3317606,2281
3317607,2282
3317608,2282
3317609,2282
3317610,2283
3317611,2281
3317612,2282
3317613,2282
3317614,2281
3317615,2283
3317616,2281
3317617,2282
3317618,2282
3317619,2283
3317620,2284
3317621,2284
3317622,2286
3317623,2285
3317624,2283
3317625,2281
3317626,2280
3317627,2279
3317628,2280
3317629,2281
3317630,2284
3317631,2283
3317632,2282
3317633,2282
3317634,2271
3317635,2268
3317636,2270
3317637,2279
3317638,2280
3317639,2280
3317640,2280
3317641,2280
3317642,2281
3317643,2281
3317644,2280
3317645,2280
3317646,2279
3317647,2280
3317648,2280
3317649,2280
3317650,2280
3317651,2280
3317652,2280
3317653,2280
3317654,2279
3317655,2280
3317656,2280
3317657,2281
3317658,2282
3317659,2280
3317660,2271
3317661,2269
3317662,2270
3317663,2270
3317664,2278
3317665,2272
3317666,2269
3317667,2279
3317668,2271
3317669,2271
3317670,2279
3317671,2271
3317672,2269
3317673,2268
3317674,2270
3317675,2270
3317676,2269
3317677,2269
3317678,2268
3317679,2266
3317680,2268
3317681,2268
3317682,2269
3317683,2270
3317684,2271
3317685,2271
3317686,2280
3317687,2270
3317688,2279
3317689,2270
3317690,2270
3317691,2269
3317692,2269
3317693,2270
3317694,2270
3317695,2267
3317696,2253
3317697,2263
3317698,2267
3317699,2266
3317700,2266
3317701,2266
3317702,2266
3317703,2266
3317704,2267
3317705,2267
3317706,2265
3317707,2263
3317708,2263
3317709,2264
3317710,2267
3317711,2267
3317712,2266
3317713,2266
3317714,2267
3317715,2267
3317716,2267
3317717,2267
3317718,2268
3317719,2266
3317720,2268
3317721,2265
3317722,2266
3317723,2268
3317724,2266
3317725,2265
3317726,2264
3317727,2264
3317728,2263
3317729,2255
3317730,2254
3317731,2254
3317732,2253
3317733,2254
3317734,2255
3317735,2253
3317736,2252
3317737,2255
3317738,2252
3317739,2252
3317740,2252
3317741,2253
3317742,2253
3317743,2251
3317744,2253
3317745,2250
3317746,2251
3317747,2251
3317748,2250
3317749,2252
3317750,2252
3317751,2251
3317752,2251
3317753,2251
3317754,2252
3317755,2251
3317756,2253
3317757,2254
3317758,2254
3317759,2252
3317760,2252
3317761,2251
3317762,2252
3317763,2251
3317764,2248
3317765,2248
3317766,2247
3317767,2239
3317768,2248
3317769,2248
3317770,2248
3317771,2246
3317772,2247
3317773,2249
3317774,2248
3317775,2248
3317776,2248
3317777,2248
3317778,2248
3317779,2249
3317780,2249
3317781,2247
3317782,2248
3317783,2247
3317784,2237
3317785,2236
3317786,2235
3317787,2236
3317788,2237
3317789,2238
3317790,2236
3317791,2237
3317792,2236
3317793,2234
3317794,2235
3317795,2235
3317796,2233
3317797,2233
3317798,2234
3317799,2233
3317800,2232
3317801,2233
3317802,2232
3317803,2233
3317804,2234
3317805,2232
3317806,2232
3317807,2232
3317808,2231
3317809,2231
3317810,2231
3317811,2233
3317812,2232
3317813,2232
3317814,2223
3317815,2231
3317816,2232
3317817,2231
3317818,2223
3317819,2221
3317820,2220
3317821,2220
3317822,2217
3317823,2220
3317824,2220
3317825,2218
3317826,2219
3317827,2219
3317828,2219
3317829,2219
3317830,2218
3317831,2217
3317832,2217
3317833,2217
3317834,2216
3317835,2217
3317836,2215
3317837,2216
3317838,2206
3317839,2207
3317840,2215
3317841,2215
3317842,2214
3317843,2206
3317844,2206
3317845,2204
3317846,2205
3317847,2204
3317848,2206
3317849,2205
3317850,2206
3317851,2206
3317852,2206
3317853,2206
3317854,2205
3317855,2206
3317856,2205
3317857,2203
3317858,2202
3317859,2202
3317860,2202
3317861,2203
3317862,2202
3317863,2202
3317864,2203
3317865,2204
3317866,2204
3317867,2204
3317868,2202
3317869,2203
3317870,2202
3317871,2200
3317872,2202
3317873,2201
3317874,2199
3317875,2201
3317876,2201
3317877,2201
3317878,2201
3317879,2203
3317880,2204
3317881,2206
3317882,2206
3317883,2206
3317884,2206
3317885,2205
3317886,2203
3317887,2202
3317888,2200
3317889,2199
3317890,2191
3317891,2189
3317892,2188
3317893,2186
3317894,2184
3317895,2184
3317896,2175
3317897,2184
3317898,2175
3317899,2184
3317900,2176
3317901,2186
3317902,2188
3317903,2190
3317904,2190
3317905,2189
3317906,2188
3317907,2188
3317908,2189
3317909,2199
3317910,2200
3317911,2191
3317912,2187
3317913,2184
3317914,2183
3317915,2185
3317916,2188
3317917,2200
3317918,2206
3317919,2218
3317920,2217
3317921,2217
3317922,2206
3317923,2199
3317924,2186
3317925,2175
3317926,2170
3317927,2157
3317928,2152
3317929,2139
3317930,2142
3317931,2153
3317932,2154
3317933,2154
3317934,2154
3317935,2154
3317936,2152
3317937,2152
3317938,2154
3317939,2155
3317940,2156
3317941,2157
3317942,2158
3317943,2157
3317944,2156
3317945,2156
3317946,2159
3317947,2160
3317948,2167
3317949,2168
3317950,2171
3317951,2170
3317952,2169
3317953,2168
3317954,2157
3317955,2155
3317956,2153
3317957,2144
3317958,2143
3317959,2142
3317960,2141
3317961,2141
3317962,2140
3317963,2140
3317964,2138
3317965,2138
3317966,2137
3317967,2137
3317968,2141
3317969,2139
3317970,2142
3317971,2143
3317972,2142
3317973,2151
3317974,2142
3317975,2151
3317976,2143
3317977,2141
3317978,2140
3317979,2142
3317980,2142
3317981,2143
3317982,2144
3317983,2144
3317984,2151
3317985,2151
3317986,2152
3317987,2152
3317988,2153
3317989,2152
3317990,2152
3317991,2151
3317992,2142
3317993,2142
3317994,2141
3317995,2141
3317996,2139
3317997,2140
3317998,2139
3317999,2140
3318000,2138
3318001,2139
3318002,2139
3318003,2139
3318004,2138
3318005,2138
3318006,2137
3318007,2137
3318008,2137
3318009,2138
3318010,2136
3318011,2136
3318012,2128
3318013,2135
3318014,2135
3318015,2128
3318016,2136
3318017,2136
3318018,2135
3318019,2136
3318020,2135
3318021,2126
3318022,2126
3318023,2124
3318024,2124
3318025,2125
3318026,2124
3318027,2125
3318028,2125
3318029,2123
3318030,2123
3318031,2122
3318032,2124
3318033,2124
3318034,2124
3318035,2124
3318036,2123
3318037,2123
3318038,2123
3318039,2121
3318040,2122
3318041,2122
3318042,2123
3318043,2122
3318044,2123
3318045,2123
3318046,2123
3318047,2122
3318048,2123
3318049,2120
3318050,2122
3318051,2121
3318052,2122
3318053,2120
3318054,2120
3318055,2120
3318056,2120
3318057,2119
3318058,2119
3318059,2120
3318060,2118
3318061,2119
3318062,2120
3318063,2120
3318064,2120
3318065,2121
3318066,2121
3318067,2121
3318068,2121
3318069,2120
3318070,2121
3318071,2120
3318072,2120
3318073,2120
3318074,2120
3318075,2121
3318076,2120
3318077,2120
3318078,2120
3318079,2120
3318080,2120
3318081,2111
3318082,2111
3318083,2109
3318084,2111
3318085,2109
3318086,2111
3318087,2117
3318088,2111
3318089,2111
3318090,2118
3318091,2109
3318092,2108
3318093,2107
3318094,2106
3318095,2107
3318096,2106
3318097,2107
3318098,2107
3318099,2108
3318100,2106
3318101,2106
3318102,2107
3318103,2108
3318104,2104
3318105,2106
3318106,2106
3318107,2107
3318108,2105
3318109,2106
3318110,2105
3318111,2106
3318112,2107
3318113,2105
3318114,2104
3318115,2105
3318116,2104
3318117,2104
3318118,2104
3318119,2095
3318120,2103
3318121,2095
3318122,2094
3318123,2093
3318124,2093
3318125,2092
3318126,2092
3318127,2092
3318128,2092
3318129,2092
3318130,2092
3318131,2091
3318132,2090
3318133,2090
3318134,2088
3318135,2088
3318136,2089
3318137,2089
3318138,2088
3318139,2088
3318140,2079
3318141,2079
3318142,2077
3318143,2076
3318144,2077
3318145,2075
3318146,2078
3318147,2078
3318148,2078
3318149,2075
3318150,2076
3318151,2076
3318152,2074
3318153,2073
3318154,2075
3318155,2073
3318156,2073
3318157,2064
3318158,2064
3318159,2064
3318160,2074
3318161,2072
3318162,2064
3318163,2064
3318164,2064
3318165,2064
3318166,2072
3318167,2062
3318168,2062
3318169,2062
3318170,2061
3318171,2061
3318172,2059
3318173,2060
3318174,2062
3318175,2062
3318176,2060
3318177,2059
3318178,2060
3318179,2059
3318180,2059
3318181,2060
3318182,2056
3318183,2056
3318184,2046
3318185,2056
3318186,2055
3318187,2057
3318188,2048
3318189,2056
3318190,2057
3318191,2058
3318192,2058
3318193,2057
3318194,2056
3318195,2058
3318196,2057
3318197,2056
3318198,2055
3318199,2056
3318200,2056
3318201,2056
3318202,2048
3318203,2056
3318204,2046
3318205,2046
3318206,2046
3318207,2046
3318208,2046
3318209,2046
3318210,2047
3318211,2047
3318212,2047
3318213,2046
3318214,2045
3318215,2044
3318216,2046
3318217,2047
3318218,2045
3318219,2045
3318220,2045
3318221,2045
3318222,2044
3318223,2045
3318224,2044
3318225,2045
3318226,2044
3318227,2042
3318228,2042
3318229,2031
3318230,2039
3318231,2031
3318232,2031
3318233,2041
3318234,2031
3318235,2040
3318236,2040
3318237,2039
3318238,2039
3318239,2030
3318240,2030
3318241,2030
3318242,2039
3318243,2040
3318244,2040
3318245,2041
3318246,2042
3318247,2039
3318248,2040
3318249,2031
3318250,2029
3318251,2027
3318252,2030
3318253,2028
3318254,2030
3318255,2029
3318256,2030
3318257,2030
3318258,2030
3318259,2029
3318260,2030
3318261,2028
3318262,2029
3318263,2030
3318264,2029
3318265,2029
3318266,2029
3318267,2026
3318268,2026
3318269,2025
3318270,2025
3318271,2029
3318272,2039
3318273,2043
3318274,2044
3318275,2042
3318276,2041
3318277,2030
3318278,2027
3318279,2027
3318280,2027
3318281,2027
3318282,2026
3318283,2026
3318284,2026
3318285,2029
3318286,2039
3318287,2039
3318288,2029
3318289,2024
3318290,2015
3318291,2023
3318292,2024
3318293,2015
3318294,2012
3318295,2009
3318296,1995
3318297,2007
3318298,2011
3318299,2024
3318300,2025
3318301,2026
3318302,2027
3318303,2028
3318304,2027
3318305,2027
3318306,2025
3318307,2024
3318308,2024
3318309,2015
3318310,2024
3318311,2024
3318312,2024
3318313,2023
3318314,2024
3318315,2023
3318316,2023
3318317,2024
3318318,2024
3318319,2025
3318320,2023
3318321,2023
3318322,2015
3318323,2015
3318324,2015
3318325,2024
3318326,2024
3318327,2025
3318328,2024
3318329,2024
3318330,2024
3318331,2024
3318332,2024
3318333,2024
3318334,2024
3318335,2022
3318336,2015
3318337,2024
3318338,2024
3318339,2023
3318340,2025
3318341,2024
3318342,2026
3318343,2028
3318344,2028
3318345,2025
3318346,2025
3318347,2024
3318348,2015
3318349,2014
3318350,2016
3318351,2024
3318352,2025
3318353,2026
3318354,2026
3318355,2027
3318356,2027
3318357,2026
3318358,2027
3318359,2027
3318360,2027
3318361,2027
3318362,2028
3318363,2027
3318364,2027
3318365,2028
3318366,2026
3318367,2027
3318368,2028
3318369,2028
3318370,2027
3318371,2027
3318372,2026
3318373,2028
3318374,2028
3318375,2026
3318376,2026
3318377,2027
3318378,2028
3318379,2027
3318380,2028
3318381,2026
3318382,2028
3318383,2027
3318384,2030
3318385,2028
3318386,2029
3318387,2038
3318388,2031
3318389,2031
3318390,2039
3318391,2031
3318392,2038
3318393,2039
3318394,2040
3318395,2031
3318396,2040
3318397,2041
3318398,2041
3318399,2041
3318400,2041
3318401,2041
3318402,2043
3318403,2042
3318404,2040
3318405,2040
3318406,2041
3318407,2041
3318408,2042
3318409,2044
3318410,2043
3318411,2041
3318412,2042
3318413,2043
3318414,2042
3318415,2042
3318416,2042
3318417,2044
3318418,2045
3318419,2044
3318420,2045
3318421,2045
3318422,2045
3318423,2045
3318424,2045
3318425,2045
3318426,2047
3318427,2055
3318428,2056
3318429,2055
3318430,2047
3318431,2056
3318432,2047
3318433,2048
3318434,2056
3318435,2048
3318436,2048
3318437,2056
3318438,2057
3318439,2056
3318440,2056
3318441,2058
3318442,2058
3318443,2056
3318444,2056
3318445,2057
3318446,2058
3318447,2058
3318448,2059
3318449,2058
3318450,2058
3318451,2060
3318452,2061
3318453,2061
3318454,2061
3318455,2061
3318456,2062
3318457,2062
3318458,2063
3318459,2064
3318460,2063
3318461,2064
3318462,2064
3318463,2064
3318464,2064
3318465,2064
3318466,2073
3318467,2064
3318468,2072
3318469,2073
3318470,2064
3318471,2073
3318472,2073
3318473,2064
3318474,2074
3318475,2063
3318476,2057
3318477,2059
3318478,2064
3318479,2073
3318480,2075
3318481,2075
3318482,2077
3318483,2077
3318484,2077
3318485,2077
3318486,2078
3318487,2079
3318488,2078
3318489,2079
3318490,2080
3318491,2080
3318492,2088
3318493,2080
3318494,2086
3318495,2088
3318496,2079
3318497,2087
3318498,2089
3318499,2088
3318500,2090
3318501,2091
3318502,2092
3318503,2091
3318504,2092
3318505,2091
3318506,2089
3318507,2090
3318508,2090
3318509,2090
3318510,2089
3318511,2091
3318512,2091
3318513,2089
3318514,2089
3318515,2089
3318516,2089
3318517,2090
3318518,2089
3318519,2089
3318520,2090
3318521,2090
3318522,2090
3318523,2089
3318524,2089
3318525,2090
3318526,2087
3318527,2088
3318528,2079
3318529,2086
3318530,2087
3318531,2088
3318532,2090
3318533,2090
3318534,2089
3318535,2091
3318536,2092
3318537,2090
3318538,2090
3318539,2091
3318540,2090
3318541,2090
3318542,2090
3318543,2090
3318544,2089
3318545,2091
3318546,2091
3318547,2091
3318548,2090
3318549,2091
3318550,2091
3318551,2092
3318552,2090
3318553,2089
3318554,2091
3318555,2089
3318556,2091
3318557,2090
3318558,2091
3318559,2091
3318560,2090
3318561,2089
3318562,2089
3318563,2091
3318564,2090
3318565,2090
3318566,2091
3318567,2092
3318568,2104
3318569,2106
3318570,2107
3318571,2108
3318572,2109
3318573,2109
3318574,2109
3318575,2108
3318576,2106
3318577,2104
3318578,2096
3318579,2094
3318580,2094
3318581,2093
3318582,2092
3318583,2089
3318584,2089
3318585,2089
3318586,2088
3318587,2090
3318588,2090
3318589,2090
3318590,2091
3318591,2089
3318592,2089
3318593,2088
3318594,2089
3318595,2086
3318596,2077
3318597,2087
3318598,2092
3318599,2095
3318600,2105
3318601,2105
3318602,2105
3318603,2104
3318604,2105
3318605,2107
3318606,2105
3318607,2105
3318608,2105
3318609,2103
3318610,2096
3318611,2094
3318612,2092
3318613,2090
3318614,2091
3318615,2091
3318616,2089
3318617,2088
3318618,2089
3318619,2091
3318620,2092
3318621,2092
3318622,2094
3318623,2106
3318624,2119
3318625,2126
3318626,2136
3318627,2137
3318628,2137
3318629,2128
3318630,2125
3318631,2120
3318632,2111
3318633,2108
3318634,2105
3318635,2094
3318636,2093
3318637,2091
3318638,2089
3318639,2087
3318640,2078
3318641,2075
3318642,2073
3318643,2064
3318644,2064
3318645,2075
3318646,2076
3318647,2080
3318648,2088
3318649,2089
3318650,2090
3318651,2092
3318652,2087
3318653,2078
3318654,2087
3318655,2103
3318656,2125
3318657,2143
3318658,2167
3318659,2158
3318660,2153
3318661,2136
3318662,2110
3318663,2104
3318664,2093
3318665,2093
3318666,2092
3318667,2093
3318668,2094
3318669,2094
3318670,2094
3318671,2103
3318672,2104
3318673,2106
3318674,2110
3318675,2111
3318676,2120
3318677,2121
3318678,2121
3318679,2122
3318680,2122
3318681,2120
3318682,2121
3318683,2111
3318684,2111
3318685,2108
3318686,2107
3318687,2107
3318688,2110
3318689,2119
3318690,2121
3318691,2122
3318692,2123
3318693,2124
3318694,2126
3318695,2127
3318696,2127
3318697,2135
3318698,2137
3318699,2137
3318700,2139
3318701,2141
3318702,2140
3318703,2141
3318704,2141
3318705,2141
3318706,2139
3318707,2139
3318708,2141
3318709,2143
3318710,2154
3318711,2156
3318712,2159
3318713,2168
3318714,2169
3318715,2168
3318716,2168
3318717,2168
3318718,2167
3318719,2168
3318720,2168
3318721,2171
3318722,2174
3318723,2176
3318724,2185
3318725,2184
3318726,2185
3318727,2184
3318728,2185
3318729,2185
3318730,2184
3318731,2183
3318732,2183
3318733,2183
3318734,2184
3318735,2185
3318736,2186
3318737,2188
3318738,2187
3318739,2187
3318740,2189
3318741,2190
3318742,2199
3318743,2200
3318744,2200
3318745,2201
3318746,2201
3318747,2202
3318748,2202
3318749,2205
3318750,2206
3318751,2215
3318752,2218
3318753,2217
3318754,2219
3318755,2222
3318756,2221
3318757,2230
3318758,2231
3318759,2232
3318760,2233
3318761,2234
3318762,2234
3318763,2234
3318764,2235
3318765,2234
3318766,2234
3318767,2233
3318768,2232
3318769,2233
3318770,2236
3318771,2238
3318772,2238
3318773,2236
3318774,2237
3318775,2237
3318776,2236
3318777,2237
3318778,2237
3318779,2238
3318780,2239
3318781,2239
3318782,2247
3318783,2247
3318784,2239
3318785,2249
3318786,2249
3318787,2251
3318788,2251
3318789,2254
3318790,2254
3318791,2263
3318792,2254
3318793,2262
3318794,2254
3318795,2255
3318796,2253
3318797,2253
3318798,2253
3318799,2253
3318800,2254
3318801,2254
3318802,2254
3318803,2255
3318804,2253
3318805,2253
3318806,2253
3318807,2254
3318808,2253
3318809,2253
3318810,2253
3318811,2253
3318812,2254
3318813,2254
3318814,2255
3318815,2253
3318816,2253
3318817,2254
3318818,2254
3318819,2253
3318820,2254
3318821,2262
3318822,2254
3318823,2254
3318824,2253
3318825,2251
3318826,2251
3318827,2252
3318828,2253
3318829,2251
3318830,2252
3318831,2254
3318832,2254
3318833,2253
3318834,2255
3318835,2253
3318836,2254
3318837,2252
3318838,2252
3318839,2252
3318840,2252
3318841,2251
3318842,2251
3318843,2253
3318844,2250
3318845,2251
3318846,2252
3318847,2252
3318848,2252
3318849,2253
3318850,2251
3318851,2253
3318852,2252
3318853,2251
3318854,2251
3318855,2249
3318856,2250
3318857,2249
3318858,2249
3318859,2248
3318860,2248
3318861,2248
3318862,2250
3318863,2251
3318864,2251
3318865,2253
3318866,2251
3318867,2252
3318868,2251
3318869,2251
3318870,2250
3318871,2251
3318872,2250
3318873,2249
3318874,2250
3318875,2251
3318876,2252
3318877,2254
3318878,2256
3318879,2252
3318880,2251
3318881,2251
3318882,2251
3318883,2250
3318884,2249
3318885,2251
3318886,2249
3318887,2250
3318888,2252
3318889,2252
3318890,2251
3318891,2251
3318892,2252
3318893,2253
3318894,2251
3318895,2249
3318896,2249
3318897,2249
3318898,2250
3318899,2250
3318900,2249
3318901,2248
3318902,2248
3318903,2248
3318904,2239
3318905,2247
3318906,2249
3318907,2239
3318908,2238
3318909,2248
3318910,2249
3318911,2249
3318912,2251
3318913,2251
3318914,2250
3318915,2250
3318916,2250
3318917,2249
3318918,2251
3318919,2251
3318920,2252
3318921,2251
3318922,2251
3318923,2252
3318924,2252
3318925,2254
3318926,2253
3318927,2253
3318928,2254
3318929,2255
3318930,2264
3318931,2263
3318932,2264
3318933,2263
3318934,2263
3318935,2255
3318936,2254
3318937,2262
3318938,2255
3318939,2255
3318940,2264
3318941,2264
3318942,2263
3318943,2256
3318944,2254
3318945,2254
3318946,2262
3318947,2255
3318948,2263
3318949,2255
3318950,2264
3318951,2265
3318952,2267
3318953,2265
3318954,2265
3318955,2266
3318956,2264
3318957,2266
3318958,2266
3318959,2265
3318960,2264
3318961,2264
3318962,2264
3318963,2256
3318964,2263
3318965,2264
3318966,2265
3318967,2264
3318968,2265
3318969,2264
3318970,2266
3318971,2266
3318972,2265
3318973,2267
3318974,2269
3318975,2266
3318976,2267
3318977,2268
3318978,2268
3318979,2267
3318980,2268
3318981,2268
3318982,2270
3318983,2269
3318984,2268
3318985,2270
3318986,2280
3318987,2281
3318988,2280
3318989,2282
3318990,2282
3318991,2280
3318992,2279
3318993,2280
3318994,2281
3318995,2281
3318996,2281
3318997,2282
3318998,2280
3318999,2272
3319000,2280
3319001,2280
3319002,2281
3319003,2282
3319004,2281
3319005,2280
3319006,2279
3319007,2280
3319008,2272
3319009,2270
3319010,2271
3319011,2271
3319012,2279
3319013,2280
3319014,2271
3319015,2272
3319016,2280
3319017,2281
3319018,2281
3319019,2282
3319020,2281
3319021,2282
3319022,2282
3319023,2281
3319024,2280
3319025,2280
3319026,2280
3319027,2281
3319028,2281
3319029,2280
3319030,2280
3319031,2280
3319032,2281
3319033,2281
3319034,2282
3319035,2285
3319036,2284
3319037,2283
3319038,2284
3319039,2284
3319040,2283
3319041,2282
3319042,2282
3319043,2281
3319044,2280
3319045,2281
3319046,2280
3319047,2282
3319048,2285
3319049,2283
3319050,2283
3319051,2284
3319052,2282
3319053,2282
3319054,2283
3319055,2284
3319056,2284
3319057,2285
3319058,2285
3319059,2286
3319060,2283
3319061,2282
3319062,2283
3319063,2284
3319064,2283
3319065,2283
3319066,2281
3319067,2280
3319068,2280
3319069,2280
3319070,2280
3319071,2282
3319072,2283
3319073,2286
3319074,2286
3319075,2287
3319076,2296
3319077,2296
3319078,2287
3319079,2287
3319080,2287
3319081,2287
3319082,2286
3319083,2285
3319084,2288
3319085,2287
3319086,2286
3319087,2287
3319088,2296
3319089,2296
3319090,2287
3319091,2296
3319092,2286
3319093,2286
3319094,2287
3319095,2287
3319096,2286
3319097,2295
3319098,2295
3319099,2287
3319100,2294
3319101,2295
3319102,2287
3319103,2287
3319104,2286
3319105,2295
3319106,2285
3319107,2287
3319108,2286
3319109,2287
3319110,2295
3319111,2295
3319112,2287
3319113,2286
3319114,2295
3319115,2295
3319116,2295
3319117,2294
3319118,2296
3319119,2286
3319120,2288
3319121,2288
3319122,2288
3319123,2295
3319124,2297
3319125,2297
3319126,2298
3319127,2296
3319128,2296
3319129,2295
3319130,2296
3319131,2296
3319132,2296
3319133,2297
3319134,2295
3319135,2297
3319136,2298
3319137,2297
3319138,2297
3319139,2297
3319140,2298
3319141,2297
3319142,2296
3319143,2297
3319144,2298
3319145,2297
3319146,2297
3319147,2297
3319148,2299
3319149,2298
3319150,2297
3319151,2296
3319152,2295
3319153,2295
3319154,2296
3319155,2296
3319156,2296
3319157,2297
3319158,2297
3319159,2296
3319160,2296
3319161,2296
3319162,2288
3319163,2296
3319164,2296
3319165,2288
3319166,2287
3319167,2295
3319168,2296
3319169,2295
3319170,2295
3319171,2295
3319172,2295
3319173,2296
3319174,2296
3319175,2298
3319176,2298
3319177,2297
3319178,2298
3319179,2296
3319180,2298
3319181,2297
3319182,2296
3319183,2296
3319184,2296
3319185,2297
3319186,2297
3319187,2296
3319188,2295
3319189,2297
3319190,2296
3319191,2296
3319192,2296
3319193,2295
3319194,2297
3319195,2296
3319196,2299
3319197,2298
3319198,2297
3319199,2296
3319200,2294
3319201,2287
3319202,2296
3319203,2295
3319204,2296
3319205,2296
3319206,2294
3319207,2287
3319208,2288
3319209,2286
3319210,2286
3319211,2287
3319212,2294
3319213,2295
3319214,2296
3319215,2296
3319216,2296
3319217,2294
3319218,2286
3319219,2286
3319220,2287
3319221,2285
3319222,2285
3319223,2284
3319224,2284
3319225,2286
3319226,2286
3319227,2286
3319228,2286
3319229,2285
3319230,2285
3319231,2285
3319232,2284
3319233,2285
3319234,2285
3319235,2285
3319236,2285
3319237,2285
3319238,2284
3319239,2284
3319240,2283
3319241,2283
3319242,2286
3319243,2286
3319244,2286
3319245,2283
3319246,2285
3319247,2283
3319248,2283
3319249,2283
3319250,2284
3319251,2284
3319252,2285
3319253,2285
3319254,2284
3319255,2285
3319256,2284
3319257,2285
3319258,2285
3319259,2287
3319260,2286
3319261,2287
3319262,2284
3319263,2285
3319264,2285
3319265,2286
3319266,2285
3319267,2284
3319268,2288
3319269,2285
3319270,2287
3319271,2287
3319272,2287
3319273,2296
3319274,2286
3319275,2284
3319276,2286
3319277,2285
3319278,2285
3319279,2284
3319280,2284
3319281,2283
3319282,2284
3319283,2284
3319284,2282
3319285,2284
3319286,2285
3319287,2284
3319288,2284
3319289,2282
3319290,2281
3319291,2283
3319292,2284
3319293,2283
3319294,2283
3319295,2283
3319296,2282
3319297,2282
3319298,2283
3319299,2283
3319300,2283
3319301,2282
3319302,2283
3319303,2284
3319304,2282
3319305,2282
3319306,2283
3319307,2282
3319308,2282
3319309,2283
3319310,2282
3319311,2282
3319312,2282
3319313,2282
3319314,2284
3319315,2283
3319316,2282
3319317,2283
3319318,2282
3319319,2282
3319320,2281
3319321,2281
3319322,2281
3319323,2283
3319324,2282
3319325,2283
3319326,2282
3319327,2283
3319328,2281
3319329,2281
3319330,2282
3319331,2283
3319332,2281
3319333,2283
3319334,2283
3319335,2281
3319336,2282
3319337,2281
3319338,2281
3319339,2280
3319340,2281
3319341,2282
3319342,2282
3319343,2282
3319344,2283
3319345,2282
3319346,2281
3319347,2281
3319348,2282
3319349,2281
3319350,2281
3319351,2281
3319352,2280
3319353,2281
3319354,2280
3319355,2280
3319356,2281
3319357,2281
3319358,2281
3319359,2280
3319360,2279
3319361,2280
3319362,2279
3319363,2280
3319364,2280
3319365,2280
3319366,2280
3319367,2280
3319368,2271
3319369,2280
3319370,2280
3319371,2280
3319372,2282
3319373,2280
3319374,2280
3319375,2279
3319376,2271
3319377,2271
3319378,2279
3319379,2279
3319380,2279
3319381,2280
3319382,2271
3319383,2271
3319384,2272
3319385,2270
3319386,2271
3319387,2272
3319388,2278
3319389,2272
3319390,2271
3319391,2270
3319392,2279
3319393,2280
3319394,2271
3319395,2278
3319396,2279
3319397,2280
3319398,2280
3319399,2270
3319400,2271
3319401,2271
3319402,2271
3319403,2271
3319404,2270
3319405,2278
3319406,2279
3319407,2280
3319408,2279
3319409,2279
3319410,2280
3319411,2280
3319412,2280
3319413,2280
3319414,2281
3319415,2280
3319416,2279
3319417,2280
3319418,2280
3319419,2271
3319420,2271
3319421,2271
3319422,2279
3319423,2280
3319424,2279
3319425,2278
3319426,2271
3319427,2280
3319428,2272
3319429,2270
3319430,2270
3319431,2272
3319432,2279
3319433,2278
3319434,2280
3319435,2280
3319436,2281
3319437,2281
3319438,2280
3319439,2271
3319440,2270
3319441,2270
3319442,2268
3319443,2266
3319444,2267
3319445,2266
3319446,2266
3319447,2267
3319448,2267
3319449,2267
3319450,2265
3319451,2267
3319452,2267
3319453,2266
3319454,2266
3319455,2267
3319456,2268
3319457,2267
3319458,2268
3319459,2266
3319460,2267
3319461,2268
3319462,2267
3319463,2266
3319464,2267
3319465,2266
3319466,2270
3319467,2267
3319468,2268
3319469,2268
3319470,2267
3319471,2265
3319472,2265
3319473,2268
3319474,2269
3319475,2270
3319476,2269
3319477,2268
3319478,2268
3319479,2267
3319480,2266
3319481,2264
3319482,2264
3319483,2264
3319484,2262
3319485,2264
3319486,2264
3319487,2265
3319488,2263
3319489,2264
3319490,2263
3319491,2263
3319492,2263
3319493,2263
3319494,2262
3319495,2263
3319496,2264
3319497,2263
3319498,2264
3319499,2263
3319500,2264
3319501,2264
3319502,2264
3319503,2255
3319504,2264
3319505,2263
3319506,2264
3319507,2264
3319508,2264
3319509,2262
3319510,2262
3319511,2255
3319512,2254
3319513,2255
3319514,2255
3319515,2253
3319516,2253
3319517,2255
3319518,2255
3319519,2256
3319520,2254
3319521,2263
3319522,2255
3319523,2256
3319524,2262
3319525,2255
3319526,2255
3319527,2255
3319528,2254
3319529,2254
3319530,2254
3319531,2255
3319532,2255
3319533,2254
3319534,2251
3319535,2253
3319536,2254
3319537,2253
3319538,2253
3319539,2251
3319540,2252
3319541,2253
3319542,2251
3319543,2250
3319544,2250
3319545,2249
3319546,2249
3319547,2248
3319548,2248
3319549,2248
3319550,2248
3319551,2248
3319552,2248
3319553,2248
3319554,2247
3319555,2248
3319556,2250
3319557,2250
3319558,2251
3319559,2250
3319560,2250
3319561,2248
3319562,2247
3319563,2248
3319564,2248
3319565,2246
3319566,2247
3319567,2247
3319568,2247
3319569,2248
3319570,2247
3319571,2238
3319572,2247
3319573,2238
3319574,2247
3319575,2240
3319576,2239
3319577,2240
3319578,2238
3319579,2238
3319580,2238
3319581,2238
3319582,2238
3319583,2238
3319584,2237
3319585,2234
3319586,2232
3319587,2232
3319588,2234
3319589,2235
3319590,2235
3319591,2235
3319592,2236
3319593,2235
3319594,2235
3319595,2233
3319596,2233
3319597,2232
3319598,2233
3319599,2232
3319600,2233
3319601,2231
3319602,2231
3319603,2224
3319604,2223
3319605,2222
3319606,2223
3319607,2222
3319608,2221
3319609,2222
3319610,2222
3319611,2222
3319612,2220
3319613,2221
3319614,2221
3319615,2221
3319616,2220
3319617,2221
3319618,2220
3319619,2220
3319620,2220
3319621,2220
3319622,2219
3319623,2220
3319624,2220
3319625,2221
3319626,2222
3319627,2221
3319628,2221
3319629,2220
3319630,2219
3319631,2217
3319632,2218
3319633,2219
3319634,2220
3319635,2218
3319636,2216
3319637,2217
3319638,2218
3319639,2217
3319640,2218
3319641,2218
3319642,2218
3319643,2218
3319644,2218
3319645,2218
3319646,2219
3319647,2217
3319648,2218
3319649,2216
3319650,2216
3319651,2216
3319652,2216
3319653,2216
3319654,2217
3319655,2216
3319656,2216
3319657,2207
3319658,2216
3319659,2216
3319660,2216
3319661,2215
3319662,2216
3319663,2216
3319664,2215
3319665,2208
3319666,2207
3319667,2206
3319668,2207
3319669,2214
3319670,2216
3319671,2208
3319672,2216
3319673,2207
3319674,2208
3319675,2204
3319676,2200
3319677,2203
3319678,2204
3319679,2207
3319680,2206
3319681,2214
3319682,2207
3319683,2206
3319684,2206
3319685,2207
3319686,2207
3319687,2214
3319688,2207
3319689,2207
3319690,2205
3319691,2206
3319692,2206
3319693,2206
3319694,2207
3319695,2207
3319696,2214
3319697,2206
3319698,2205
3319699,2205
3319700,2205
3319701,2203
3319702,2204
3319703,2204
3319704,2205
3319705,2208
3319706,2215
3319707,2207
3319708,2215
3319709,2205
3319710,2204
3319711,2204
3319712,2204
3319713,2202
3319714,2203
3319715,2203
3319716,2203
3319717,2204
3319718,2204
3319719,2204
3319720,2204
3319721,2203
3319722,2204
3319723,2203
3319724,2204
3319725,2203
3319726,2203
3319727,2204
3319728,2205
3319729,2207
3319730,2206
3319731,2207
3319732,2206
3319733,2206
3319734,2205
3319735,2205
3319736,2207
3319737,2207
3319738,2207
3319739,2207
3319740,2206
3319741,2206
3319742,2207
3319743,2206
3319744,2206
3319745,2214
3319746,2206
3319747,2205
3319748,2206
3319749,2206
3319750,2207
3319751,2207
3319752,2205
3319753,2204
3319754,2204
3319755,2203
3319756,2205
3319757,2205
3319758,2206
3319759,2203
3319760,2205
3319761,2204
3319762,2204
3319763,2203
3319764,2204
3319765,2204
3319766,2203
3319767,2204
3319768,2203
3319769,2205
3319770,2205
3319771,2206
3319772,2206
3319773,2205
3319774,2205
3319775,2205
3319776,2206
3319777,2207
3319778,2206
3319779,2205
3319780,2207
3319781,2207
3319782,2215
3319783,2207
3319784,2207
3319785,2216
3319786,2218
3319787,2217
3319788,2216
3319789,2218
3319790,2217
3319791,2215
3319792,2215
3319793,2214
3319794,2215
3319795,2205
3319796,2202
3319797,2203
3319798,2206
3319799,2206
3319800,2204
3319801,2206
3319802,2206
3319803,2206
3319804,2206
3319805,2214
3319806,2214
3319807,2207
3319808,2215
3319809,2216
3319810,2208
3319811,2207
3319812,2208
3319813,2207
3319814,2207
3319815,2206
3319816,2206
3319817,2206
3319818,2217
3319819,2218
3319820,2220
3319821,2221
3319822,2220
3319823,2219
3319824,2216
3319825,2207
3319826,2206
3319827,2204
3319828,2203
3319829,2204
3319830,2202
3319831,2201
3319832,2201
3319833,2202
3319834,2201
3319835,2201
3319836,2201
3319837,2202
3319838,2203
3319839,2204
3319840,2204
3319841,2204
3319842,2205
3319843,2205
3319844,2215
3319845,2216
3319846,2217
3319847,2218
3319848,2217
3319849,2215
3319850,2207
3319851,2204
3319852,2202
3319853,2202
3319854,2201
3319855,2204
3319856,2204
3319857,2206
3319858,2207
3319859,2215
3319860,2216
3319861,2208
3319862,2206
3319863,2207
3319864,2214
3319865,2204
3319866,2203
3319867,2203
3319868,2204
3319869,2204
3319870,2205
3319871,2202
3319872,2200
3319873,2189
3319874,2190
3319875,2191
3319876,2191
3319877,2200
3319878,2200
3319879,2198
3319880,2191
3319881,2199
3319882,2200
3319883,2200
3319884,2201
3319885,2202
3319886,2202
3319887,2202
3319888,2201
3319889,2202
3319890,2204
3319891,2203
3319892,2202
3319893,2202
3319894,2204
3319895,2204
3319896,2204
3319897,2204
3319898,2204
3319899,2204
3319900,2202
3319901,2202
3319902,2203
3319903,2205
3319904,2206
3319905,2207
3319906,2207
3319907,2207
3319908,2206
3319909,2206
3319910,2207
3319911,2207
3319912,2215
3319913,2216
3319914,2216
3319915,2218
3319916,2216
3319917,2217
3319918,2216
3319919,2218
3319920,2218
3319921,2219
3319922,2218
3319923,2218
3319924,2217
3319925,2220
3319926,2219
3319927,2221
3319928,2222
3319929,2234
3319930,2238
3319931,2248
3319932,2251
3319933,2254
3319934,2255
3319935,2263
3319936,2253
3319937,2250
3319938,2238
3319939,2234
3319940,2234
3319941,2233
3319942,2223
3319943,2231
3319944,2237
3319945,2253
3319946,2270
3319947,2284
3319948,2283
3319949,2279
3319950,2264
3319951,2247
3319952,2233
3319953,2224
3319954,2231
3319955,2224
3319956,2223
3319957,2216
3319958,2203
3319959,2200
3319960,2190
3319961,2191
3319962,2191
3319963,2200
3319964,2202
3319965,2203
3319966,2204
3319967,2203
3319968,2206
3319969,2207
3319970,2206
3319971,2217
3319972,2218
3319973,2218
3319974,2220
3319975,2219
3319976,2221
3319977,2222
3319978,2231
3319979,2235
3319980,2235
3319981,2236
3319982,2236
3319983,2234
3319984,2232
3319985,2221
3319986,2215
3319987,2202
3319988,2201
3319989,2203
3319990,2205
3319991,2216
3319992,2218
3319993,2221
3319994,2223
3319995,2222
3319996,2231
3319997,2231
3319998,2224
3319999,2231
3320000,2223
3320001,2223
3320002,2231
3320003,2231
3320004,2231
3320005,2232
3320006,2232
3320007,2232
3320008,2233
3320009,2233
3320010,2232
3320011,2232
3320012,2233
3320013,2232
3320014,2232
3320015,2232
3320016,2233
3320017,2231
3320018,2232
3320019,2232
3320020,2234
3320021,2235
3320022,2235
3320023,2235
3320024,2233
3320025,2234
3320026,2234
3320027,2234
3320028,2234
3320029,2234
3320030,2235
3320031,2235
3320032,2234
3320033,2237
3320034,2237
3320035,2234
3320036,2235
3320037,2238
3320038,2236
3320039,2237
3320040,2237
3320041,2236
3320042,2237
3320043,2237
3320044,2237
3320045,2236
3320046,2236
3320047,2235
3320048,2237
3320049,2236
3320050,2236
3320051,2238
3320052,2235
3320053,2237
3320054,2236
3320055,2236
3320056,2236
3320057,2236
3320058,2237
3320059,2237
3320060,2238
3320061,2237
3320062,2238
3320063,2238
3320064,2236
3320065,2237
3320066,2238
3320067,2236
3320068,2238
3320069,2237
3320070,2239
3320071,2238
3320072,2238
3320073,2237
3320074,2237
3320075,2237
3320076,2238
3320077,2238
3320078,2238
3320079,2246
3320080,2247
3320081,2246
3320082,2248
3320083,2240
3320084,2248
3320085,2248
3320086,2248
3320087,2249
3320088,2248
3320089,2247
3320090,2247
3320091,2248
3320092,2248
3320093,2250
3320094,2250
3320095,2249
3320096,2252
3320097,2251
3320098,2249
3320099,2248
3320100,2248
3320101,2249
3320102,2249
3320103,2251
3320104,2251
3320105,2249
3320106,2251
3320107,2252
3320108,2252
3320109,2253
3320110,2266
3320111,2270
3320112,2270
3320113,2270
3320114,2267
3320115,2263
3320116,2265
3320117,2270
3320118,2284
3320119,2299
3320120,2301
3320121,2295
3320122,2280
3320123,2253
3320124,2233
3320125,2219
3320126,2215
3320127,2204
3320128,2201
3320129,2199
3320130,2191
3320131,2188
3320132,2189
3320133,2200
3320134,2205
3320135,2207
3320136,2216
3320137,2218
3320138,2219
3320139,2222
3320140,2223
3320141,2232
3320142,2233
3320143,2234
3320144,2234
3320145,2234
3320146,2232
3320147,2222
3320148,2220
3320149,2219
3320150,2220
3320151,2220
3320152,2221
3320153,2222
3320154,2219
3320155,2221
3320156,2218
3320157,2219
3320158,2219
3320159,2219
3320160,2222
3320161,2221
3320162,2222
3320163,2222
3320164,2222
3320165,2222
3320166,2223
3320167,2222
3320168,2230
3320169,2223
3320170,2231
3320171,2232
3320172,2224
3320173,2231
3320174,2224
3320175,2232
3320176,2238
3320177,2248
3320178,2248
3320179,2249
3320180,2248
3320181,2248
3320182,2239
3320183,2235
3320184,2233
3320185,2232
3320186,2232
3320187,2224
3320188,2222
3320189,2222
3320190,2222
3320191,2221
3320192,2221
3320193,2219
3320194,2221
3320195,2221
3320196,2223
3320197,2223
3320198,2232
3320199,2233
3320200,2233
3320201,2234
3320202,2234
3320203,2234
3320204,2233
3320205,2232
3320206,2232
3320207,2235
3320208,2249
3320209,2252
3320210,2254
3320211,2263
3320212,2266
3320213,2268
3320214,2269
3320215,2269
3320216,2268
3320217,2265
3320218,2263
3320219,2252
3320220,2248
3320221,2237
3320222,2232
3320223,2223
3320224,2219
3320225,2215
3320226,2205
3320227,2202
3320228,2204
3320229,2203
3320230,2205
3320231,2207
3320232,2208
3320233,2215
3320234,2218
3320235,2219
3320236,2220
3320237,2222
3320238,2223
3320239,2223
3320240,2231
3320241,2232
3320242,2232
3320243,2233
3320244,2232
3320245,2232
3320246,2236
3320247,2236
3320248,2237
3320249,2237
3320250,2238
3320251,2238
3320252,2238
3320253,2237
3320254,2237
3320255,2235
3320256,2235
3320257,2235
3320258,2235
3320259,2235
3320260,2236
3320261,2237
3320262,2235
3320263,2236
3320264,2239
3320265,2247
3320266,2240
3320267,2247
3320268,2248
3320269,2248
3320270,2252
3320271,2252
3320272,2251
3320273,2250
3320274,2238
3320275,2239
3320276,2248
3320277,2247
3320278,2239
3320279,2239
3320280,2237
3320281,2239
3320282,2237
3320283,2235
3320284,2232
3320285,2224
3320286,2231
